Winding Voltages under Load 
Air-Gap Position (elec. degrees)
Voltage (V)
0	12.0909
1	47.6973
2	82.5754
3	116.916
4	150.878
5	184.282
6	216.916
7	248.982
8	280.734
9	312.473
10	344.171
11	376.369
12	408.494
13	440.789
14	473.581
15	506.336
16	539.088
17	571.728
18	604.288
19	636.724
20	669.002
21	701.101
22	733.003
23	764.695
24	796.165
25	827.363
26	858.315
27	889.011
28	919.441
29	949.595
30	979.462
31	1009.03
32	1038.29
33	1067.23
34	1095.85
35	1124.13
36	1152.07
37	1179.67
38	1206.9
39	1233.76
40	1260.23
41	1286.32
42	1312.02
43	1337.34
44	1362.24
45	1386.72
46	1410.75
47	1434.33
48	1457.44
49	1480.05
50	1502.11
51	1523.66
52	1544.59
53	1564.95
54	1584.2
55	1602.67
56	1620.61
57	1637.45
58	1653.74
59	1669.46
60	1684.9
61	1700.33
62	1715.96
63	1731.58
64	1747.01
65	1762.43
66	1778.02
67	1793.57
68	1808.81
69	1823.43
70	1837.44
71	1850.28
72	1862.52
73	1873.9
74	1884.08
75	1893.57
76	1902.34
77	1910.47
78	1917.93
79	1924.75
80	1930.94
81	1936.52
82	1941.49
83	1945.86
84	1949.63
85	1952.83
86	1955.42
87	1957.42
88	1958.82
89	1959.62
90	1959.81
91	1959.41
92	1958.42
93	1956.83
94	1954.65
95	1951.86
96	1948.49
97	1944.51
98	1939.95
99	1934.8
100	1929.07
101	1922.75
102	1915.85
103	1908.35
104	1900.27
105	1891.62
106	1882.42
107	1872.66
108	1862.38
109	1851.58
110	1840.32
111	1828.54
112	1816.36
113	1803.74
114	1791.2
115	1778.4
116	1765.11
117	1751.88
118	1738.17
119	1724.01
120	1709.08
121	1693.13
122	1675.95
123	1657.75
124	1638.7
125	1618.64
126	1597.37
127	1575.12
128	1552.14
129	1528.77
130	1504.98
131	1481.34
132	1457.29
133	1433.09
134	1409.09
135	1384.76
136	1360.17
137	1335.21
138	1309.94
139	1284.33
140	1258.36
141	1232.04
142	1205.35
143	1178.32
144	1150.93
145	1123.17
146	1095.07
147	1066.64
148	1037.89
149	1008.83
150	979.462
151	949.797
152	919.839
153	889.602
154	859.094
155	828.324
156	797.305
157	766.043
158	734.545
159	702.819
160	670.875
161	638.721
162	606.367
163	573.856
164	541.161
165	508.288
166	475.242
167	442.028
168	408.643
169	375.073
170	341.295
171	307.361
172	273.182
173	238.811
174	203.738
175	168.307
176	132.785
177	96.6159
178	60.3641
179	24.0218
180	-12.0909
181	-47.6973
182	-82.5755
183	-116.917
184	-150.878
185	-184.282
186	-216.916
187	-248.982
188	-280.734
189	-312.473
190	-344.171
191	-376.369
192	-408.494
193	-440.789
194	-473.581
195	-506.336
196	-539.088
197	-571.728
198	-604.288
199	-636.724
200	-669.002
201	-701.101
202	-733.003
203	-764.695
204	-796.165
205	-827.363
206	-858.315
207	-889.011
208	-919.441
209	-949.595
210	-979.462
211	-1009.03
212	-1038.29
213	-1067.23
214	-1095.85
215	-1124.13
216	-1152.07
217	-1179.67
218	-1206.9
219	-1233.76
220	-1260.23
221	-1286.32
222	-1312.02
223	-1337.34
224	-1362.24
225	-1386.72
226	-1410.75
227	-1434.33
228	-1457.44
229	-1480.05
230	-1502.11
231	-1523.66
232	-1544.59
233	-1564.95
234	-1584.2
235	-1602.67
236	-1620.61
237	-1637.45
238	-1653.74
239	-1669.46
240	-1684.9
241	-1700.33
242	-1715.96
243	-1731.58
244	-1747.01
245	-1762.43
246	-1778.02
247	-1793.57
248	-1808.81
249	-1823.43
250	-1837.44
251	-1850.28
252	-1862.52
253	-1873.9
254	-1884.08
255	-1893.57
256	-1902.34
257	-1910.47
258	-1917.93
259	-1924.75
260	-1930.94
261	-1936.52
262	-1941.49
263	-1945.86
264	-1949.63
265	-1952.83
266	-1955.42
267	-1957.42
268	-1958.82
269	-1959.62
270	-1959.81
271	-1959.41
272	-1958.42
273	-1956.83
274	-1954.65
275	-1951.86
276	-1948.49
277	-1944.51
278	-1939.95
279	-1934.8
280	-1929.07
281	-1922.75
282	-1915.85
283	-1908.35
284	-1900.27
285	-1891.62
286	-1882.42
287	-1872.66
288	-1862.38
289	-1851.58
290	-1840.32
291	-1828.54
292	-1816.36
293	-1803.74
294	-1791.2
295	-1778.4
296	-1765.11
297	-1751.88
298	-1738.17
299	-1724.01
300	-1709.08
301	-1693.13
302	-1675.95
303	-1657.75
304	-1638.7
305	-1618.64
306	-1597.37
307	-1575.12
308	-1552.14
309	-1528.77
310	-1504.98
311	-1481.34
312	-1457.29
313	-1433.09
314	-1409.09
315	-1384.76
316	-1360.17
317	-1335.21
318	-1309.94
319	-1284.33
320	-1258.36
321	-1232.04
322	-1205.35
323	-1178.32
324	-1150.93
325	-1123.17
326	-1095.07
327	-1066.64
328	-1037.89
329	-1008.83
330	-979.462
331	-949.797
332	-919.839
333	-889.602
334	-859.094
335	-828.324
336	-797.305
337	-766.043
338	-734.545
339	-702.819
340	-670.875
341	-638.721
342	-606.367
343	-573.856
344	-541.161
345	-508.288
346	-475.242
347	-442.028
348	-408.643
349	-375.073
350	-341.295
351	-307.361
352	-273.182
353	-238.811
354	-203.738
355	-168.308
356	-132.785
357	-96.6159
358	-60.3641
359	-24.0218
360	12.0909
Phase Voltage va
0	1696.99
1	1748.03
2	1798.54
3	1848.5
4	1897.89
5	1946.71
6	1994.93
7	2042.55
8	2089.54
9	2135.9
10	2181.61
11	2226.65
12	2271.02
13	2314.69
14	2357.66
15	2399.91
16	2441.43
17	2482.2
18	2522.22
19	2561.47
20	2599.94
21	2637.62
22	2674.5
23	2710.56
24	2745.79
25	2780.19
26	2813.74
27	2846.43
28	2878.26
29	2909.21
30	2939.28
31	2968.44
32	2996.71
33	3024.06
34	3050.49
35	3075.99
36	3100.56
37	3124.18
38	3146.85
39	3168.56
40	3189.3
41	3209.07
42	3227.87
43	3245.68
44	3262.51
45	3278.34
46	3293.17
47	3307
48	3319.82
49	3331.63
50	3342.42
51	3352.2
52	3360.95
53	3368.69
54	3375.39
55	3381.07
56	3385.72
57	3389.33
58	3391.92
59	3393.47
60	3393.98
61	3393.47
62	3391.92
63	3389.33
64	3385.72
65	3381.07
66	3375.39
67	3368.69
68	3360.95
69	3352.2
70	3342.42
71	3331.63
72	3319.82
73	3307
74	3293.17
75	3278.34
76	3262.51
77	3245.68
78	3227.87
79	3209.07
80	3189.3
81	3168.56
82	3146.85
83	3124.18
84	3100.56
85	3075.99
86	3050.49
87	3024.06
88	2996.71
89	2968.44
90	2939.28
91	2909.21
92	2878.26
93	2846.43
94	2813.74
95	2780.19
96	2745.79
97	2710.56
98	2674.5
99	2637.62
100	2599.94
101	2561.47
102	2522.22
103	2482.2
104	2441.43
105	2399.91
106	2357.66
107	2314.69
108	2271.02
109	2226.65
110	2181.61
111	2135.9
112	2089.54
113	2042.55
114	1994.93
115	1946.71
116	1897.89
117	1848.5
118	1798.54
119	1748.03
120	1696.99
121	1645.44
122	1593.38
123	1540.84
124	1487.82
125	1434.36
126	1380.46
127	1326.14
128	1271.41
129	1216.29
130	1160.81
131	1104.97
132	1048.8
133	992.305
134	935.509
135	878.428
136	821.079
137	763.48
138	705.649
139	647.603
140	589.359
141	530.936
142	472.351
143	413.623
144	354.768
145	295.805
146	236.752
147	177.627
148	118.448
149	59.2332
150	-1.83036e-11
151	-59.2332
152	-118.448
153	-177.627
154	-236.752
155	-295.805
156	-354.768
157	-413.623
158	-472.351
159	-530.936
160	-589.359
161	-647.603
162	-705.649
163	-763.48
164	-821.079
165	-878.428
166	-935.509
167	-992.305
168	-1048.8
169	-1104.97
170	-1160.81
171	-1216.29
172	-1271.41
173	-1326.14
174	-1380.46
175	-1434.36
176	-1487.82
177	-1540.84
178	-1593.38
179	-1645.44
180	-1696.99
181	-1748.03
182	-1798.54
183	-1848.5
184	-1897.89
185	-1946.71
186	-1994.93
187	-2042.55
188	-2089.54
189	-2135.9
190	-2181.61
191	-2226.65
192	-2271.02
193	-2314.69
194	-2357.66
195	-2399.91
196	-2441.43
197	-2482.2
198	-2522.22
199	-2561.47
200	-2599.94
201	-2637.62
202	-2674.5
203	-2710.56
204	-2745.79
205	-2780.19
206	-2813.74
207	-2846.43
208	-2878.26
209	-2909.21
210	-2939.28
211	-2968.44
212	-2996.71
213	-3024.06
214	-3050.49
215	-3075.99
216	-3100.56
217	-3124.18
218	-3146.85
219	-3168.56
220	-3189.3
221	-3209.07
222	-3227.87
223	-3245.68
224	-3262.51
225	-3278.34
226	-3293.17
227	-3307
228	-3319.82
229	-3331.63
230	-3342.42
231	-3352.2
232	-3360.95
233	-3368.69
234	-3375.39
235	-3381.07
236	-3385.72
237	-3389.33
238	-3391.92
239	-3393.47
240	-3393.98
241	-3393.47
242	-3391.92
243	-3389.33
244	-3385.72
245	-3381.07
246	-3375.39
247	-3368.69
248	-3360.95
249	-3352.2
250	-3342.42
251	-3331.63
252	-3319.82
253	-3307
254	-3293.17
255	-3278.34
256	-3262.51
257	-3245.68
258	-3227.87
259	-3209.07
260	-3189.3
261	-3168.56
262	-3146.85
263	-3124.18
264	-3100.56
265	-3075.99
266	-3050.49
267	-3024.06
268	-2996.71
269	-2968.44
270	-2939.28
271	-2909.21
272	-2878.26
273	-2846.43
274	-2813.74
275	-2780.19
276	-2745.79
277	-2710.56
278	-2674.5
279	-2637.62
280	-2599.94
281	-2561.47
282	-2522.22
283	-2482.2
284	-2441.43
285	-2399.91
286	-2357.66
287	-2314.69
288	-2271.02
289	-2226.65
290	-2181.61
291	-2135.9
292	-2089.54
293	-2042.55
294	-1994.93
295	-1946.71
296	-1897.89
297	-1848.5
298	-1798.54
299	-1748.03
300	-1696.99
301	-1645.44
302	-1593.38
303	-1540.84
304	-1487.82
305	-1434.36
306	-1380.46
307	-1326.14
308	-1271.41
309	-1216.29
310	-1160.81
311	-1104.97
312	-1048.8
313	-992.305
314	-935.509
315	-878.428
316	-821.079
317	-763.48
318	-705.649
319	-647.603
320	-589.359
321	-530.936
322	-472.351
323	-413.623
324	-354.768
325	-295.805
326	-236.752
327	-177.627
328	-118.448
329	-59.2332
330	-7.84439e-12
331	59.2332
332	118.448
333	177.627
334	236.752
335	295.805
336	354.768
337	413.623
338	472.351
339	530.936
340	589.359
341	647.603
342	705.649
343	763.48
344	821.079
345	878.428
346	935.509
347	992.305
348	1048.8
349	1104.97
350	1160.81
351	1216.29
352	1271.41
353	1326.14
354	1380.46
355	1434.36
356	1487.82
357	1540.84
358	1593.38
359	1645.44
360	1696.99
Line Voltage vab
