Induced Winding Voltages at Rated Speed
Air-Gap Position (elec. degrees)
Voltage (V)
0	-287.678710
1	-289.056695
2	-290.357031
3	-291.570040
4	-292.691006
5	-293.710446
6	-294.627266
7	-295.433227
8	-296.141450
9	-296.751805
10	-297.250930
11	-297.647597
12	-297.942598
13	-298.145113
14	-298.259520
15	-298.294947
16	-298.259520
17	-298.145113
18	-297.942598
19	-297.647597
20	-297.250930
21	-296.751805
22	-296.141450
23	-295.433227
24	-294.627266
25	-293.710446
26	-292.691006
27	-291.570040
28	-290.357031
29	-289.056695
30	-287.678710
31	-286.232003
32	-284.709742
33	-283.104974
34	-281.414675
35	-279.633184
36	-277.762293
37	-275.807475
38	-273.788828
39	-271.707508
40	-269.564438
41	-267.368689
42	-265.122914
43	-262.831238
44	-260.487074
45	-258.084069
46	-255.619626
47	-253.079142
48	-250.446197
49	-247.702289
50	-244.830452
51	-241.827119
52	-238.699321
53	-235.467987
54	-232.148954
55	-228.748568
56	-225.282636
57	-221.768048
58	-218.211512
59	-214.620542
60	-210.990086
61	-207.323489
62	-203.618939
63	-199.866234
64	-196.058695
65	-192.185109
66	-188.240651
67	-184.227315
68	-180.150731
69	-176.025873
70	-171.852485
71	-167.632251
72	-163.379570
73	-159.097158
74	-154.789189
75	-150.448500
76	-146.077195
77	-141.672707
78	-137.224334
79	-132.725129
80	-128.163645
81	-123.534835
82	-118.840501
83	-114.086122
84	-109.286547
85	-104.441448
86	-99.553248
87	-94.636284
88	-89.693221
89	-84.728201
90	-79.734054
91	-74.712884
92	-69.662134
93	-64.571137
94	-59.435057
95	-54.243062
96	-48.990190
97	-43.678353
98	-38.313157
99	-32.909610
100	-27.469037
101	-21.998529
102	-16.512720
103	-11.014665
104	-5.509025
105	0.000000
106	5.509025
107	11.014665
108	16.512720
109	21.998529
110	27.469037
111	32.909610
112	38.313157
113	43.678353
114	48.990190
115	54.243062
116	59.435057
117	64.571137
118	69.662134
119	74.712884
120	79.734054
121	84.728201
122	89.693221
123	94.636284
124	99.553248
125	104.441448
126	109.286547
127	114.086122
128	118.840501
129	123.534835
130	128.163645
131	132.725129
132	137.224334
133	141.672707
134	146.077195
135	150.448500
136	154.789189
137	159.097158
138	163.379570
139	167.632251
140	171.852485
141	176.025873
142	180.150731
143	184.227315
144	188.240651
145	192.185109
146	196.058695
147	199.866234
148	203.618939
149	207.323489
150	210.990086
151	214.620542
152	218.211512
153	221.768048
154	225.282636
155	228.748568
156	232.148954
157	235.467987
158	238.699321
159	241.827119
160	244.830452
161	247.702289
162	250.446197
163	253.079142
164	255.619626
165	258.084069
166	260.487074
167	262.831238
168	265.122914
169	267.368689
170	269.564438
171	271.707508
172	273.788828
173	275.807475
174	277.762293
175	279.633184
176	281.414675
177	283.104974
178	284.709742
179	286.232003
180	287.678710
181	289.056695
182	290.357031
183	291.570040
184	292.691006
185	293.710446
186	294.627266
187	295.433227
188	296.141450
189	296.751805
190	297.250930
191	297.647597
192	297.942598
193	298.145113
194	298.259520
195	298.294947
196	298.259520
197	298.145113
198	297.942598
199	297.647597
200	297.250930
201	296.751805
202	296.141450
203	295.433227
204	294.627266
205	293.710446
206	292.691006
207	291.570040
208	290.357031
209	289.056695
210	287.678710
211	286.232003
212	284.709742
213	283.104974
214	281.414675
215	279.633184
216	277.762293
217	275.807475
218	273.788828
219	271.707508
220	269.564438
221	267.368689
222	265.122914
223	262.831238
224	260.487074
225	258.084069
226	255.619626
227	253.079142
228	250.446197
229	247.702289
230	244.830452
231	241.827119
232	238.699321
233	235.467987
234	232.148954
235	228.748568
236	225.282636
237	221.768048
238	218.211512
239	214.620542
240	210.990086
241	207.323489
242	203.618939
243	199.866234
244	196.058695
245	192.185109
246	188.240651
247	184.227315
248	180.150731
249	176.025873
250	171.852485
251	167.632251
252	163.379570
253	159.097158
254	154.789189
255	150.448500
256	146.077195
257	141.672707
258	137.224334
259	132.725129
260	128.163645
261	123.534835
262	118.840501
263	114.086122
264	109.286547
265	104.441448
266	99.553248
267	94.636284
268	89.693221
269	84.728201
270	79.734054
271	74.712884
272	69.662134
273	64.571137
274	59.435057
275	54.243062
276	48.990190
277	43.678353
278	38.313157
279	32.909610
280	27.469037
281	21.998529
282	16.512720
283	11.014665
284	5.509025
285	-0.000000
286	-5.509025
287	-11.014665
288	-16.512720
289	-21.998529
290	-27.469037
291	-32.909610
292	-38.313157
293	-43.678353
294	-48.990190
295	-54.243062
296	-59.435057
297	-64.571137
298	-69.662134
299	-74.712884
300	-79.734054
301	-84.728201
302	-89.693221
303	-94.636284
304	-99.553248
305	-104.441448
306	-109.286547
307	-114.086122
308	-118.840501
309	-123.534835
310	-128.163645
311	-132.725129
312	-137.224334
313	-141.672707
314	-146.077195
315	-150.448500
316	-154.789189
317	-159.097158
318	-163.379570
319	-167.632251
320	-171.852485
321	-176.025873
322	-180.150731
323	-184.227315
324	-188.240651
325	-192.185109
326	-196.058695
327	-199.866234
328	-203.618939
329	-207.323489
330	-210.990086
331	-214.620542
332	-218.211512
333	-221.768048
334	-225.282636
335	-228.748568
336	-232.148954
337	-235.467987
338	-238.699321
339	-241.827119
340	-244.830452
341	-247.702289
342	-250.446197
343	-253.079142
344	-255.619626
345	-258.084069
346	-260.487074
347	-262.831238
348	-265.122914
349	-267.368689
350	-269.564438
351	-271.707508
352	-273.788828
353	-275.807475
354	-277.762293
355	-279.633184
356	-281.414675
357	-283.104974
358	-284.709742
359	-286.232003
360	-287.678710
Phase Voltage ea
0	-498.668796
1	-496.380184
2	-493.975970
3	-491.436274
4	-488.749701
5	-485.895554
6	-482.867917
7	-479.660542
8	-476.292182
9	-472.777678
10	-469.103415
11	-465.279848
12	-461.322168
13	-457.242271
14	-453.048709
15	-448.743447
16	-444.336715
17	-439.817819
18	-435.166932
19	-430.372725
20	-425.414575
21	-420.286640
22	-414.981951
23	-409.519349
24	-403.913813
25	-398.151894
26	-392.244253
27	-386.206324
28	-380.050252
29	-373.784897
30	-367.412764
31	-360.944887
32	-354.371876
33	-347.676111
34	-340.849732
35	-333.876246
36	-326.752483
37	-319.485827
38	-312.101985
39	-304.617118
40	-297.033474
41	-289.367218
42	-281.635635
43	-273.845903
44	-265.996098
45	-258.084069
46	-250.110601
47	-242.064477
48	-233.933477
49	-225.703760
50	-217.361415
51	-208.917509
52	-200.386164
53	-191.789635
54	-183.158764
55	-174.505505
56	-165.847579
57	-157.196911
58	-148.549378
59	-139.907658
60	-131.256032
61	-122.595288
62	-113.925718
63	-105.229949
64	-96.505447
65	-87.743661
66	-78.954104
67	-70.141193
68	-61.310230
69	-52.491038
70	-43.688840
71	-34.907122
72	-26.155236
73	-17.424452
74	-8.711994
75	0.000000
76	8.711994
77	17.424452
78	26.155236
79	34.907122
80	43.688840
81	52.491038
82	61.310230
83	70.141193
84	78.954104
85	87.743661
86	96.505447
87	105.229949
88	113.925718
89	122.595288
90	131.256032
91	139.907658
92	148.549378
93	157.196911
94	165.847579
95	174.505505
96	183.158764
97	191.789635
98	200.386164
99	208.917509
100	217.361415
101	225.703760
102	233.933477
103	242.064477
104	250.110601
105	258.084069
106	265.996098
107	273.845903
108	281.635635
109	289.367218
110	297.033474
111	304.617118
112	312.101985
113	319.485827
114	326.752483
115	333.876246
116	340.849732
117	347.676111
118	354.371876
119	360.944887
120	367.412764
121	373.784897
122	380.050252
123	386.206324
124	392.244253
125	398.151894
126	403.913813
127	409.519349
128	414.981951
129	420.286640
130	425.414575
131	430.372725
132	435.166932
133	439.817819
134	444.336715
135	448.743447
136	453.048709
137	457.242271
138	461.322168
139	465.279848
140	469.103415
141	472.777678
142	476.292182
143	479.660542
144	482.867917
145	485.895554
146	488.749701
147	491.436274
148	493.975970
149	496.380184
150	498.668796
151	500.852545
152	502.921254
153	504.873022
154	506.697311
155	508.381751
156	509.911247
157	511.275462
158	512.488149
159	513.534627
160	514.394889
161	515.070978
162	515.569112
163	515.910381
164	516.106700
165	516.168137
166	516.106700
167	515.910381
168	515.569112
169	515.070978
170	514.394889
171	513.534627
172	512.488149
173	511.275462
174	509.911247
175	508.381751
176	506.697311
177	504.873022
178	502.921254
179	500.852545
180	498.668796
181	496.380184
182	493.975970
183	491.436274
184	488.749701
185	485.895554
186	482.867917
187	479.660542
188	476.292182
189	472.777678
190	469.103415
191	465.279848
192	461.322168
193	457.242271
194	453.048709
195	448.743447
196	444.336715
197	439.817819
198	435.166932
199	430.372725
200	425.414575
201	420.286640
202	414.981951
203	409.519349
204	403.913813
205	398.151894
206	392.244253
207	386.206324
208	380.050252
209	373.784897
210	367.412764
211	360.944887
212	354.371876
213	347.676111
214	340.849732
215	333.876246
216	326.752483
217	319.485827
218	312.101985
219	304.617118
220	297.033474
221	289.367218
222	281.635635
223	273.845903
224	265.996098
225	258.084069
226	250.110601
227	242.064477
228	233.933477
229	225.703760
230	217.361415
231	208.917509
232	200.386164
233	191.789635
234	183.158764
235	174.505505
236	165.847579
237	157.196911
238	148.549378
239	139.907658
240	131.256032
241	122.595288
242	113.925718
243	105.229949
244	96.505447
245	87.743661
246	78.954104
247	70.141193
248	61.310230
249	52.491038
250	43.688840
251	34.907122
252	26.155236
253	17.424452
254	8.711994
255	-0.000000
256	-8.711994
257	-17.424452
258	-26.155236
259	-34.907122
260	-43.688840
261	-52.491038
262	-61.310230
263	-70.141193
264	-78.954104
265	-87.743661
266	-96.505447
267	-105.229949
268	-113.925718
269	-122.595288
270	-131.256032
271	-139.907658
272	-148.549378
273	-157.196911
274	-165.847579
275	-174.505505
276	-183.158764
277	-191.789635
278	-200.386164
279	-208.917509
280	-217.361415
281	-225.703760
282	-233.933477
283	-242.064477
284	-250.110601
285	-258.084069
286	-265.996098
287	-273.845903
288	-281.635635
289	-289.367218
290	-297.033474
291	-304.617118
292	-312.101985
293	-319.485827
294	-326.752483
295	-333.876246
296	-340.849732
297	-347.676111
298	-354.371876
299	-360.944887
300	-367.412764
301	-373.784897
302	-380.050252
303	-386.206324
304	-392.244253
305	-398.151894
306	-403.913813
307	-409.519349
308	-414.981951
309	-420.286640
310	-425.414575
311	-430.372725
312	-435.166932
313	-439.817819
314	-444.336715
315	-448.743447
316	-453.048709
317	-457.242271
318	-461.322168
319	-465.279848
320	-469.103415
321	-472.777678
322	-476.292182
323	-479.660542
324	-482.867917
325	-485.895554
326	-488.749701
327	-491.436274
328	-493.975970
329	-496.380184
330	-498.668796
331	-500.852545
332	-502.921254
333	-504.873022
334	-506.697311
335	-508.381751
336	-509.911247
337	-511.275462
338	-512.488149
339	-513.534627
340	-514.394889
341	-515.070978
342	-515.569112
343	-515.910381
344	-516.106700
345	-516.168137
346	-516.106700
347	-515.910381
348	-515.569112
349	-515.070978
350	-514.394889
351	-513.534627
352	-512.488149
353	-511.275462
354	-509.911247
355	-508.381751
356	-506.697311
357	-504.873022
358	-502.921254
359	-500.852545
360	-498.668796
Line Voltage eab
