Induced Winding Voltages at Rated Speed
Air-Gap Position (elec. degrees)
Voltage (V)
0	-300.366178
1	-300.249601
2	-300.043655
3	-299.744153
4	-299.341959
5	-298.836559
6	-298.220043
7	-297.506612
8	-296.696431
9	-295.775599
10	-294.751552
11	-293.625186
12	-292.406009
13	-291.098631
14	-289.712581
15	-288.256920
16	-286.724848
17	-285.109431
18	-283.407708
19	-281.614045
20	-279.730303
21	-277.762574
22	-275.731495
23	-273.637931
24	-271.482500
25	-269.274028
26	-267.014974
27	-264.709465
28	-262.350755
29	-259.932269
30	-257.451488
31	-254.893804
32	-252.242774
33	-249.479883
34	-246.588141
35	-243.564026
36	-240.415193
37	-237.163667
38	-233.825470
39	-230.406339
40	-226.921530
41	-223.387499
42	-219.810742
43	-216.198648
44	-212.545808
45	-208.855470
46	-205.125961
47	-201.347143
48	-197.512430
49	-193.610682
50	-189.637164
51	-185.593981
52	-181.487417
53	-177.332994
54	-173.130183
55	-168.880389
56	-164.597806
57	-160.284977
58	-155.946089
59	-151.573826
60	-147.170117
61	-142.732479
62	-138.250232
63	-133.716452
64	-129.119719
65	-124.455019
66	-119.724224
67	-114.933438
68	-110.098025
69	-105.217363
70	-100.293579
71	-95.340794
72	-90.361484
73	-85.359800
74	-80.328415
75	-75.269260
76	-70.179865
77	-65.049590
78	-59.873647
79	-54.641249
80	-49.347484
81	-43.994362
82	-38.588146
83	-33.144390
84	-27.664177
85	-22.154380
86	-16.629468
87	-11.092381
88	-5.547839
89	-0.000000
90	5.547839
91	11.092381
92	16.629468
93	22.154380
94	27.664177
95	33.144390
96	38.588146
97	43.994362
98	49.347484
99	54.641249
100	59.873647
101	65.049590
102	70.179865
103	75.269260
104	80.328415
105	85.359800
106	90.361484
107	95.340794
108	100.293579
109	105.217363
110	110.098025
111	114.933438
112	119.724224
113	124.455019
114	129.119719
115	133.716452
116	138.250232
117	142.732479
118	147.170117
119	151.573826
120	155.946089
121	160.284977
122	164.597806
123	168.880389
124	173.130183
125	177.332994
126	181.487417
127	185.593981
128	189.637164
129	193.610682
130	197.512430
131	201.347143
132	205.125961
133	208.855470
134	212.545808
135	216.198648
136	219.810742
137	223.387499
138	226.921530
139	230.406339
140	233.825470
141	237.163667
142	240.415193
143	243.564026
144	246.588141
145	249.479883
146	252.242774
147	254.893804
148	257.451488
149	259.932269
150	262.350755
151	264.709465
152	267.014974
153	269.274028
154	271.482500
155	273.637931
156	275.731495
157	277.762574
158	279.730303
159	281.614045
160	283.407708
161	285.109431
162	286.724848
163	288.256920
164	289.712581
165	291.098631
166	292.406009
167	293.625186
168	294.751552
169	295.775599
170	296.696431
171	297.506612
172	298.220043
173	298.836559
174	299.341959
175	299.744153
176	300.043655
177	300.249601
178	300.366178
179	300.402308
180	300.366178
181	300.249601
182	300.043655
183	299.744153
184	299.341959
185	298.836559
186	298.220043
187	297.506612
188	296.696431
189	295.775599
190	294.751552
191	293.625186
192	292.406009
193	291.098631
194	289.712581
195	288.256920
196	286.724848
197	285.109431
198	283.407708
199	281.614045
200	279.730303
201	277.762574
202	275.731495
203	273.637931
204	271.482500
205	269.274028
206	267.014974
207	264.709465
208	262.350755
209	259.932269
210	257.451488
211	254.893804
212	252.242774
213	249.479883
214	246.588141
215	243.564026
216	240.415193
217	237.163667
218	233.825470
219	230.406339
220	226.921530
221	223.387499
222	219.810742
223	216.198648
224	212.545808
225	208.855470
226	205.125961
227	201.347143
228	197.512430
229	193.610682
230	189.637164
231	185.593981
232	181.487417
233	177.332994
234	173.130183
235	168.880389
236	164.597806
237	160.284977
238	155.946089
239	151.573826
240	147.170117
241	142.732479
242	138.250232
243	133.716452
244	129.119719
245	124.455019
246	119.724224
247	114.933438
248	110.098025
249	105.217363
250	100.293579
251	95.340794
252	90.361484
253	85.359800
254	80.328415
255	75.269260
256	70.179865
257	65.049590
258	59.873647
259	54.641249
260	49.347484
261	43.994362
262	38.588146
263	33.144390
264	27.664177
265	22.154380
266	16.629468
267	11.092381
268	5.547839
269	0.000000
270	-5.547839
271	-11.092381
272	-16.629468
273	-22.154380
274	-27.664177
275	-33.144390
276	-38.588146
277	-43.994362
278	-49.347484
279	-54.641249
280	-59.873647
281	-65.049590
282	-70.179865
283	-75.269260
284	-80.328415
285	-85.359800
286	-90.361484
287	-95.340794
288	-100.293579
289	-105.217363
290	-110.098025
291	-114.933438
292	-119.724224
293	-124.455019
294	-129.119719
295	-133.716452
296	-138.250232
297	-142.732479
298	-147.170117
299	-151.573826
300	-155.946089
301	-160.284977
302	-164.597806
303	-168.880389
304	-173.130183
305	-177.332994
306	-181.487417
307	-185.593981
308	-189.637164
309	-193.610682
310	-197.512430
311	-201.347143
312	-205.125961
313	-208.855470
314	-212.545808
315	-216.198648
316	-219.810742
317	-223.387499
318	-226.921530
319	-230.406339
320	-233.825470
321	-237.163667
322	-240.415193
323	-243.564026
324	-246.588141
325	-249.479883
326	-252.242774
327	-254.893804
328	-257.451488
329	-259.932269
330	-262.350755
331	-264.709465
332	-267.014974
333	-269.274028
334	-271.482500
335	-273.637931
336	-275.731495
337	-277.762574
338	-279.730303
339	-281.614045
340	-283.407708
341	-285.109431
342	-286.724848
343	-288.256920
344	-289.712581
345	-291.098631
346	-292.406009
347	-293.625186
348	-294.751552
349	-295.775599
350	-296.696431
351	-297.506612
352	-298.220043
353	-298.836559
354	-299.341959
355	-299.744153
356	-300.043655
357	-300.249601
358	-300.366178
359	-300.402308
360	-300.366178
Phase Voltage ea
0	-447.536295
1	-442.982080
2	-438.293888
3	-433.460605
4	-428.461679
5	-423.291578
6	-417.944267
7	-412.440050
8	-406.794456
9	-400.992962
10	-395.045132
11	-388.965980
12	-382.767493
13	-376.458430
14	-370.040996
15	-363.526180
16	-356.904712
17	-350.159021
18	-343.281355
19	-336.255294
20	-329.077787
21	-321.756936
22	-314.319641
23	-306.782321
24	-299.146677
25	-291.428408
26	-283.644442
27	-275.801846
28	-267.898594
29	-259.932269
30	-251.903649
31	-243.801423
32	-235.613306
33	-227.325503
34	-218.923964
35	-210.419635
36	-201.827047
37	-193.169305
38	-184.477985
39	-175.765090
40	-167.047883
41	-158.337909
42	-149.630877
43	-140.929388
44	-132.217393
45	-123.495670
46	-114.764476
47	-106.006348
48	-97.218851
49	-88.393319
50	-79.539140
51	-70.660543
52	-61.763194
53	-52.877975
54	-44.010464
55	-35.163936
56	-26.347574
57	-17.552498
58	-8.775971
59	-0.000000
60	8.775971
61	17.552498
62	26.347574
63	35.163936
64	44.010464
65	52.877975
66	61.763194
67	70.660543
68	79.539140
69	88.393319
70	97.218851
71	106.006348
72	114.764476
73	123.495670
74	132.217393
75	140.929388
76	149.630877
77	158.337909
78	167.047883
79	175.765090
80	184.477985
81	193.169305
82	201.827047
83	210.419635
84	218.923964
85	227.325503
86	235.613306
87	243.801423
88	251.903649
89	259.932269
90	267.898594
91	275.801846
92	283.644442
93	291.428408
94	299.146677
95	306.782321
96	314.319641
97	321.756936
98	329.077787
99	336.255294
100	343.281355
101	350.159021
102	356.904712
103	363.526180
104	370.040996
105	376.458430
106	382.767493
107	388.965980
108	395.045132
109	400.992962
110	406.794456
111	412.440050
112	417.944267
113	423.291578
114	428.461679
115	433.460605
116	438.293888
117	442.982080
118	447.536295
119	451.976134
120	456.312267
121	460.534578
122	464.641461
123	468.624542
124	472.472143
125	476.169553
126	479.707461
127	483.100593
128	486.333595
129	489.386281
130	492.263982
131	494.972329
132	497.531969
133	499.954100
134	502.258389
135	504.455568
136	506.535590
137	508.496930
138	510.329238
139	512.020384
140	513.555772
141	514.926241
142	516.146688
143	517.201957
144	518.070642
145	518.753911
146	519.257748
147	519.603269
148	519.802243
149	519.864538
150	519.802243
151	519.603269
152	519.257748
153	518.753911
154	518.070642
155	517.201957
156	516.146688
157	514.926241
158	513.555772
159	512.020384
160	510.329238
161	508.496930
162	506.535590
163	504.455568
164	502.258389
165	499.954100
166	497.531969
167	494.972329
168	492.263982
169	489.386281
170	486.333595
171	483.100593
172	479.707461
173	476.169553
174	472.472143
175	468.624542
176	464.641461
177	460.534578
178	456.312267
179	451.976134
180	447.536295
181	442.982080
182	438.293888
183	433.460605
184	428.461679
185	423.291578
186	417.944267
187	412.440050
188	406.794456
189	400.992962
190	395.045132
191	388.965980
192	382.767493
193	376.458430
194	370.040996
195	363.526180
196	356.904712
197	350.159021
198	343.281355
199	336.255294
200	329.077787
201	321.756936
202	314.319641
203	306.782321
204	299.146677
205	291.428408
206	283.644442
207	275.801846
208	267.898594
209	259.932269
210	251.903649
211	243.801423
212	235.613306
213	227.325503
214	218.923964
215	210.419635
216	201.827047
217	193.169305
218	184.477985
219	175.765090
220	167.047883
221	158.337909
222	149.630877
223	140.929388
224	132.217393
225	123.495670
226	114.764476
227	106.006348
228	97.218851
229	88.393319
230	79.539140
231	70.660543
232	61.763194
233	52.877975
234	44.010464
235	35.163936
236	26.347574
237	17.552498
238	8.775971
239	0.000000
240	-8.775971
241	-17.552498
242	-26.347574
243	-35.163936
244	-44.010464
245	-52.877975
246	-61.763194
247	-70.660543
248	-79.539140
249	-88.393319
250	-97.218851
251	-106.006348
252	-114.764476
253	-123.495670
254	-132.217393
255	-140.929388
256	-149.630877
257	-158.337909
258	-167.047883
259	-175.765090
260	-184.477985
261	-193.169305
262	-201.827047
263	-210.419635
264	-218.923964
265	-227.325503
266	-235.613306
267	-243.801423
268	-251.903649
269	-259.932269
270	-267.898594
271	-275.801846
272	-283.644442
273	-291.428408
274	-299.146677
275	-306.782321
276	-314.319641
277	-321.756936
278	-329.077787
279	-336.255294
280	-343.281355
281	-350.159021
282	-356.904712
283	-363.526180
284	-370.040996
285	-376.458430
286	-382.767493
287	-388.965980
288	-395.045132
289	-400.992962
290	-406.794456
291	-412.440050
292	-417.944267
293	-423.291578
294	-428.461679
295	-433.460605
296	-438.293888
297	-442.982080
298	-447.536295
299	-451.976134
300	-456.312267
301	-460.534578
302	-464.641461
303	-468.624542
304	-472.472143
305	-476.169553
306	-479.707461
307	-483.100593
308	-486.333595
309	-489.386281
310	-492.263982
311	-494.972329
312	-497.531969
313	-499.954100
314	-502.258389
315	-504.455568
316	-506.535590
317	-508.496930
318	-510.329238
319	-512.020384
320	-513.555772
321	-514.926241
322	-516.146688
323	-517.201957
324	-518.070642
325	-518.753911
326	-519.257748
327	-519.603269
328	-519.802243
329	-519.864538
330	-519.802243
331	-519.603269
332	-519.257748
333	-518.753911
334	-518.070642
335	-517.201957
336	-516.146688
337	-514.926241
338	-513.555772
339	-512.020384
340	-510.329238
341	-508.496930
342	-506.535590
343	-504.455568
344	-502.258389
345	-499.954100
346	-497.531969
347	-494.972329
348	-492.263982
349	-489.386281
350	-486.333595
351	-483.100593
352	-479.707461
353	-476.169553
354	-472.472143
355	-468.624542
356	-464.641461
357	-460.534578
358	-456.312267
359	-451.976134
360	-447.536295
Line Voltage eab
