Induced Winding Voltages at Rated Speed
Air-Gap Position (elec. degrees)
Voltage (V)
0	-302.134781
1	-302.137921
2	-302.139792
3	-302.140411
4	-302.139792
5	-302.137921
6	-302.134781
7	-302.129828
8	-302.122366
9	-302.112093
10	-302.098354
11	-302.079033
12	-302.052051
13	-302.016237
14	-301.968175
15	-301.904240
16	-301.820661
17	-301.711363
18	-301.568790
19	-301.380478
20	-301.121802
21	-300.749213
22	-300.121124
23	-299.123351
24	-297.568792
25	-295.129841
26	-291.036297
27	-286.103527
28	-278.998796
29	-272.431059
30	-267.847611
31	-264.724773
32	-262.129742
33	-260.697885
34	-259.348219
35	-257.967282
36	-257.223657
37	-256.467631
38	-255.645585
39	-254.732622
40	-253.679536
41	-252.577791
42	-251.099612
43	-248.883216
44	-245.554530
45	-240.458505
46	-232.055019
47	-221.976123
48	-207.557813
49	-194.218647
50	-184.899444
51	-178.566089
52	-173.303287
53	-170.384129
54	-167.653471
55	-164.891684
56	-163.443470
57	-162.021555
58	-160.533805
59	-158.955342
60	-157.251266
61	-155.681513
62	-153.869369
63	-151.319515
64	-147.657945
65	-142.229691
66	-133.494775
67	-123.081680
68	-108.317079
69	-94.634136
70	-85.019224
71	-78.449345
72	-72.957416
73	-69.817708
74	-66.878458
75	-63.923698
76	-62.301891
77	-60.677960
78	-58.976299
79	-57.229365
80	-55.441144
81	-53.905027
82	-52.381547
83	-50.489444
84	-48.041748
85	-44.711014
86	-39.593659
87	-33.453089
88	-25.116408
89	-17.321782
90	-11.607620
91	-7.433938
92	-3.126789
93	0.000000
94	3.126789
95	7.433938
96	11.607620
97	17.321782
98	25.116408
99	33.453089
100	39.593659
101	44.711014
102	48.041748
103	50.489444
104	52.381547
105	53.905027
106	55.441144
107	57.229365
108	58.976299
109	60.677960
110	62.301891
111	63.923698
112	66.878458
113	69.817708
114	72.957416
115	78.449345
116	85.019224
117	94.634136
118	108.317079
119	123.081680
120	133.494775
121	142.229691
122	147.657945
123	151.319515
124	153.869369
125	155.681513
126	157.251266
127	158.955342
128	160.533805
129	162.021555
130	163.443470
131	164.891684
132	167.653471
133	170.384129
134	173.303287
135	178.566089
136	184.899444
137	194.218647
138	207.557813
139	221.976123
140	232.055019
141	240.458505
142	245.554530
143	248.883216
144	251.099612
145	252.577791
146	253.679536
147	254.732622
148	255.645585
149	256.467631
150	257.223657
151	257.967282
152	259.348219
153	260.697885
154	262.129742
155	264.724773
156	267.847611
157	272.431059
158	278.998796
159	286.103527
160	291.036297
161	295.129841
162	297.568792
163	299.123351
164	300.121124
165	300.749213
166	301.121802
167	301.380478
168	301.568790
169	301.711363
170	301.820661
171	301.904240
172	301.968175
173	302.016237
174	302.052051
175	302.079033
176	302.098354
177	302.112093
178	302.122366
179	302.129828
180	302.134781
181	302.137921
182	302.139792
183	302.140411
184	302.139792
185	302.137921
186	302.134781
187	302.129828
188	302.122366
189	302.112093
190	302.098354
191	302.079033
192	302.052051
193	302.016237
194	301.968175
195	301.904240
196	301.820661
197	301.711363
198	301.568790
199	301.380478
200	301.121802
201	300.749213
202	300.121124
203	299.123351
204	297.568792
205	295.129841
206	291.036297
207	286.103527
208	278.998796
209	272.431059
210	267.847611
211	264.724773
212	262.129742
213	260.697885
214	259.348219
215	257.967282
216	257.223657
217	256.467631
218	255.645585
219	254.732622
220	253.679536
221	252.577791
222	251.099612
223	248.883216
224	245.554530
225	240.458505
226	232.055019
227	221.976123
228	207.557813
229	194.218647
230	184.899444
231	178.566089
232	173.303287
233	170.384129
234	167.653471
235	164.891684
236	163.443470
237	162.021555
238	160.533805
239	158.955342
240	157.251266
241	155.681513
242	153.869369
243	151.319515
244	147.657945
245	142.229691
246	133.494775
247	123.081680
248	108.317079
249	94.634136
250	85.019224
251	78.449345
252	72.957416
253	69.817708
254	66.878458
255	63.923698
256	62.301891
257	60.677960
258	58.976299
259	57.229365
260	55.441144
261	53.905027
262	52.381547
263	50.489444
264	48.041748
265	44.711014
266	39.593659
267	33.453089
268	25.116408
269	17.321782
270	11.607620
271	7.433938
272	3.126789
273	0.000000
274	-3.126789
275	-7.433938
276	-11.607620
277	-17.321782
278	-25.116408
279	-33.453089
280	-39.593659
281	-44.711014
282	-48.041748
283	-50.489444
284	-52.381547
285	-53.905027
286	-55.441144
287	-57.229365
288	-58.976299
289	-60.677960
290	-62.301891
291	-63.923698
292	-66.878458
293	-69.817708
294	-72.957416
295	-78.449345
296	-85.019224
297	-94.634136
298	-108.317079
299	-123.081680
300	-133.494775
301	-142.229691
302	-147.657945
303	-151.319515
304	-153.869369
305	-155.681513
306	-157.251266
307	-158.955342
308	-160.533805
309	-162.021555
310	-163.443470
311	-164.891684
312	-167.653471
313	-170.384129
314	-173.303287
315	-178.566089
316	-184.899444
317	-194.218647
318	-207.557813
319	-221.976123
320	-232.055019
321	-240.458505
322	-245.554530
323	-248.883216
324	-251.099612
325	-252.577791
326	-253.679536
327	-254.732622
328	-255.645585
329	-256.467631
330	-257.223657
331	-257.967282
332	-259.348219
333	-260.697885
334	-262.129742
335	-264.724773
336	-267.847611
337	-272.431059
338	-278.998796
339	-286.103527
340	-291.036297
341	-295.129841
342	-297.568792
343	-299.123351
344	-300.121124
345	-300.749213
346	-301.121802
347	-301.380478
348	-301.568790
349	-301.711363
350	-301.820661
351	-301.904240
352	-301.968175
353	-302.016237
354	-302.052051
355	-302.079033
356	-302.098354
357	-302.112093
358	-302.122366
359	-302.129828
360	-302.134781
Phase Voltage ea
0	-459.386047
1	-457.819433
2	-456.009161
3	-453.459926
4	-449.797737
5	-444.367612
6	-435.629556
7	-425.211509
8	-410.439446
9	-396.746229
10	-387.117579
11	-380.528378
12	-375.009467
13	-371.833946
14	-368.846633
15	-365.827938
16	-364.122552
17	-362.389323
18	-360.545089
19	-358.609843
20	-356.562946
21	-354.654240
22	-352.502671
23	-349.612795
24	-345.610540
25	-339.840855
26	-330.629957
27	-319.556616
28	-304.115204
29	-289.752842
30	-279.455231
31	-272.158711
32	-265.256532
33	-260.697885
34	-256.221430
35	-250.533344
36	-245.616037
37	-239.145848
38	-230.529177
39	-221.279533
40	-214.085876
41	-207.866777
42	-203.057864
43	-198.393772
44	-193.172983
45	-186.553478
46	-176.613875
47	-164.746757
48	-148.581514
49	-133.540688
50	-122.597553
51	-114.642391
52	-106.424829
53	-100.566421
54	-94.696055
55	-86.442339
56	-78.424246
57	-67.387419
58	-52.216726
59	-35.873662
60	-23.756491
61	-13.451821
62	-6.211424
63	0.000000
64	6.211424
65	13.451821
66	23.756491
67	35.873662
68	52.216726
69	67.387419
70	78.424246
71	86.442339
72	94.696055
73	100.566421
74	106.424829
75	114.642391
76	122.597553
77	133.540688
78	148.581514
79	164.746757
80	176.613875
81	186.553478
82	193.172983
83	198.393772
84	203.057864
85	207.866777
86	214.085876
87	221.279533
88	230.529177
89	239.145848
90	245.616037
91	250.533344
92	256.221430
93	260.697885
94	265.256532
95	272.158711
96	279.455231
97	289.752842
98	304.115204
99	319.556616
100	330.629957
101	339.840855
102	345.610540
103	349.612795
104	352.502671
105	354.654240
106	356.562946
107	358.609843
108	360.545089
109	362.389323
110	364.122552
111	365.827938
112	368.846633
113	371.833946
114	375.009467
115	380.528378
116	387.117579
117	396.746229
118	410.439446
119	425.211509
120	435.629556
121	444.367612
122	449.797737
123	453.459926
124	456.009161
125	457.819433
126	459.386047
127	461.085171
128	462.656172
129	464.133648
130	465.541824
131	466.970717
132	469.705522
133	472.400367
134	475.271462
135	480.470329
136	486.720105
137	495.930011
138	509.126603
139	523.356601
140	533.176821
141	541.207717
142	545.675654
143	548.006567
144	548.668404
145	547.707632
146	544.715833
147	540.836149
148	534.644381
149	528.898690
150	525.071268
151	522.692055
152	521.477961
153	521.395770
154	521.477961
155	522.692055
156	525.071268
157	528.898690
158	534.644381
159	540.836149
160	544.715833
161	547.707632
162	548.668404
163	548.006567
164	545.675654
165	541.207717
166	533.176821
167	523.356601
168	509.126603
169	495.930011
170	486.720105
171	480.470329
172	475.271462
173	472.400367
174	469.705522
175	466.970717
176	465.541824
177	464.133648
178	462.656172
179	461.085171
180	459.386047
181	457.819433
182	456.009161
183	453.459926
184	449.797737
185	444.367612
186	435.629556
187	425.211509
188	410.439446
189	396.746229
190	387.117579
191	380.528378
192	375.009467
193	371.833946
194	368.846633
195	365.827938
196	364.122552
197	362.389323
198	360.545089
199	358.609843
200	356.562946
201	354.654240
202	352.502671
203	349.612795
204	345.610540
205	339.840855
206	330.629957
207	319.556616
208	304.115204
209	289.752842
210	279.455231
211	272.158711
212	265.256532
213	260.697885
214	256.221430
215	250.533344
216	245.616037
217	239.145848
218	230.529177
219	221.279533
220	214.085876
221	207.866777
222	203.057864
223	198.393772
224	193.172983
225	186.553478
226	176.613875
227	164.746757
228	148.581514
229	133.540688
230	122.597553
231	114.642391
232	106.424829
233	100.566421
234	94.696055
235	86.442339
236	78.424246
237	67.387419
238	52.216726
239	35.873662
240	23.756491
241	13.451821
242	6.211424
243	0.000000
244	-6.211424
245	-13.451821
246	-23.756491
247	-35.873662
248	-52.216726
249	-67.387419
250	-78.424246
251	-86.442339
252	-94.696055
253	-100.566421
254	-106.424829
255	-114.642391
256	-122.597553
257	-133.540688
258	-148.581514
259	-164.746757
260	-176.613875
261	-186.553478
262	-193.172983
263	-198.393772
264	-203.057864
265	-207.866777
266	-214.085876
267	-221.279533
268	-230.529177
269	-239.145848
270	-245.616037
271	-250.533344
272	-256.221430
273	-260.697885
274	-265.256532
275	-272.158711
276	-279.455231
277	-289.752842
278	-304.115204
279	-319.556616
280	-330.629957
281	-339.840855
282	-345.610540
283	-349.612795
284	-352.502671
285	-354.654240
286	-356.562946
287	-358.609843
288	-360.545089
289	-362.389323
290	-364.122552
291	-365.827938
292	-368.846633
293	-371.833946
294	-375.009467
295	-380.528378
296	-387.117579
297	-396.746229
298	-410.439446
299	-425.211509
300	-435.629556
301	-444.367612
302	-449.797737
303	-453.459926
304	-456.009161
305	-457.819433
306	-459.386047
307	-461.085171
308	-462.656172
309	-464.133648
310	-465.541824
311	-466.970717
312	-469.705522
313	-472.400367
314	-475.271462
315	-480.470329
316	-486.720105
317	-495.930011
318	-509.126603
319	-523.356601
320	-533.176821
321	-541.207717
322	-545.675654
323	-548.006567
324	-548.668404
325	-547.707632
326	-544.715833
327	-540.836149
328	-534.644381
329	-528.898690
330	-525.071268
331	-522.692055
332	-521.477961
333	-521.395770
334	-521.477961
335	-522.692055
336	-525.071268
337	-528.898690
338	-534.644381
339	-540.836149
340	-544.715833
341	-547.707632
342	-548.668404
343	-548.006567
344	-545.675654
345	-541.207717
346	-533.176821
347	-523.356601
348	-509.126603
349	-495.930011
350	-486.720105
351	-480.470329
352	-475.271462
353	-472.400367
354	-469.705522
355	-466.970717
356	-465.541824
357	-464.133648
358	-462.656172
359	-461.085171
360	-459.386047
Line Voltage eab
