Winding Currents under Load 
Air-Gap Position (elec. degrees)
Current (A)
0	-95.9332
1	-95.333
2	-94.7037
3	-94.0456
4	-93.3589
5	-92.6437
6	-91.9003
7	-91.1289
8	-90.3298
9	-89.5031
10	-88.6492
11	-87.7683
12	-86.8606
13	-85.9265
14	-84.9662
15	-83.98
16	-82.9682
17	-81.9312
18	-80.8692
19	-79.7826
20	-78.6717
21	-77.5368
22	-76.3783
23	-75.1965
24	-73.9918
25	-72.7646
26	-71.5152
27	-70.244
28	-68.9515
29	-67.6379
30	-66.3037
31	-64.9494
32	-63.5752
33	-62.1817
34	-60.7692
35	-59.3383
36	-57.8892
37	-56.4225
38	-54.9387
39	-53.4381
40	-51.9212
41	-50.3885
42	-48.8405
43	-47.2775
44	-45.7002
45	-44.109
46	-42.5043
47	-40.8867
48	-39.2566
49	-37.6146
50	-35.9611
51	-34.2966
52	-32.6217
53	-30.9369
54	-29.2426
55	-27.5395
56	-25.8279
57	-24.1085
58	-22.3817
59	-20.6482
60	-18.9083
61	-17.1626
62	-15.4118
63	-13.6562
64	-11.8965
65	-10.1332
66	-8.36676
67	-6.59779
68	-4.82681
69	-3.05435
70	-1.28097
71	0.492803
72	2.26643
73	4.03936
74	5.81106
75	7.58099
76	9.34862
77	11.1134
78	12.8748
79	14.6323
80	16.3853
81	18.1333
82	19.8758
83	21.6122
84	23.3421
85	25.0648
86	26.7799
87	28.4869
88	30.1852
89	31.8743
90	33.5536
91	35.2228
92	36.8812
93	38.5284
94	40.1639
95	41.7871
96	43.3976
97	44.9948
98	46.5784
99	48.1478
100	49.7025
101	51.2421
102	52.766
103	54.2739
104	55.7653
105	57.2397
106	58.6966
107	60.1356
108	61.5564
109	62.9584
110	64.3412
111	65.7044
112	67.0476
113	68.3704
114	69.6723
115	70.953
116	72.2121
117	73.4493
118	74.664
119	75.856
120	77.0249
121	78.1703
122	79.2919
123	80.3894
124	81.4624
125	82.5105
126	83.5336
127	84.5311
128	85.503
129	86.4488
130	87.3682
131	88.2611
132	89.127
133	89.9658
134	90.7772
135	91.561
136	92.3169
137	93.0446
138	93.744
139	94.4148
140	95.0569
141	95.6701
142	96.254
143	96.8087
144	97.3339
145	97.8294
146	98.2952
147	98.7309
148	99.1367
149	99.5122
150	99.8574
151	100.172
152	100.456
153	100.71
154	100.933
155	101.125
156	101.287
157	101.417
158	101.517
159	101.586
160	101.624
161	101.631
162	101.607
163	101.551
164	101.466
165	101.349
166	101.201
167	101.022
168	100.813
169	100.573
170	100.302
171	100.001
172	99.6693
173	99.3073
174	98.9149
175	98.4925
176	98.0401
177	97.5578
178	97.0457
179	96.5041
180	95.9332
181	95.333
182	94.7037
183	94.0456
184	93.3589
185	92.6437
186	91.9003
187	91.1289
188	90.3298
189	89.5031
190	88.6492
191	87.7683
192	86.8606
193	85.9265
194	84.9662
195	83.98
196	82.9682
197	81.9312
198	80.8692
199	79.7826
200	78.6717
201	77.5368
202	76.3783
203	75.1965
204	73.9918
205	72.7646
206	71.5152
207	70.244
208	68.9515
209	67.6379
210	66.3037
211	64.9494
212	63.5752
213	62.1817
214	60.7692
215	59.3383
216	57.8892
217	56.4225
218	54.9387
219	53.4381
220	51.9212
221	50.3885
222	48.8405
223	47.2775
224	45.7002
225	44.109
226	42.5043
227	40.8867
228	39.2566
229	37.6146
230	35.9611
231	34.2966
232	32.6217
233	30.9369
234	29.2426
235	27.5395
236	25.8279
237	24.1085
238	22.3817
239	20.6482
240	18.9083
241	17.1626
242	15.4118
243	13.6562
244	11.8965
245	10.1332
246	8.36676
247	6.59779
248	4.82681
249	3.05435
250	1.28097
251	-0.492803
252	-2.26643
253	-4.03936
254	-5.81106
255	-7.58099
256	-9.34862
257	-11.1134
258	-12.8748
259	-14.6323
260	-16.3853
261	-18.1333
262	-19.8758
263	-21.6122
264	-23.3421
265	-25.0648
266	-26.7799
267	-28.4869
268	-30.1852
269	-31.8743
270	-33.5536
271	-35.2228
272	-36.8812
273	-38.5284
274	-40.1639
275	-41.7871
276	-43.3976
277	-44.9948
278	-46.5784
279	-48.1478
280	-49.7025
281	-51.2421
282	-52.766
283	-54.2739
284	-55.7653
285	-57.2397
286	-58.6966
287	-60.1356
288	-61.5564
289	-62.9584
290	-64.3412
291	-65.7044
292	-67.0476
293	-68.3704
294	-69.6723
295	-70.953
296	-72.2121
297	-73.4493
298	-74.664
299	-75.856
300	-77.0249
301	-78.1703
302	-79.2919
303	-80.3894
304	-81.4624
305	-82.5105
306	-83.5336
307	-84.5311
308	-85.503
309	-86.4488
310	-87.3682
311	-88.2611
312	-89.127
313	-89.9658
314	-90.7772
315	-91.561
316	-92.3169
317	-93.0446
318	-93.744
319	-94.4148
320	-95.0569
321	-95.6701
322	-96.254
323	-96.8087
324	-97.3339
325	-97.8294
326	-98.2952
327	-98.7309
328	-99.1367
329	-99.5122
330	-99.8574
331	-100.172
332	-100.456
333	-100.71
334	-100.933
335	-101.125
336	-101.287
337	-101.417
338	-101.517
339	-101.586
340	-101.624
341	-101.631
342	-101.607
343	-101.551
344	-101.466
345	-101.349
346	-101.201
347	-101.022
348	-100.813
349	-100.573
350	-100.302
351	-100.001
352	-99.6693
353	-99.3073
354	-98.9149
355	-98.4925
356	-98.0401
357	-97.5578
358	-97.0457
359	-96.5041
360	-95.9332
Phase Current ia
0	18.9083
1	17.1626
2	15.4118
3	13.6562
4	11.8965
5	10.1332
6	8.36676
7	6.59779
8	4.82681
9	3.05435
10	1.28097
11	-0.492803
12	-2.26643
13	-4.03936
14	-5.81106
15	-7.58099
16	-9.34862
17	-11.1134
18	-12.8748
19	-14.6323
20	-16.3853
21	-18.1333
22	-19.8758
23	-21.6122
24	-23.3421
25	-25.0648
26	-26.7799
27	-28.4869
28	-30.1852
29	-31.8743
30	-33.5536
31	-35.2228
32	-36.8812
33	-38.5284
34	-40.1639
35	-41.7871
36	-43.3976
37	-44.9948
38	-46.5784
39	-48.1478
40	-49.7025
41	-51.2421
42	-52.766
43	-54.2739
44	-55.7653
45	-57.2397
46	-58.6966
47	-60.1356
48	-61.5564
49	-62.9584
50	-64.3412
51	-65.7044
52	-67.0476
53	-68.3704
54	-69.6723
55	-70.953
56	-72.2121
57	-73.4493
58	-74.664
59	-75.856
60	-77.0249
61	-78.1703
62	-79.2919
63	-80.3894
64	-81.4624
65	-82.5105
66	-83.5336
67	-84.5311
68	-85.503
69	-86.4488
70	-87.3682
71	-88.2611
72	-89.127
73	-89.9658
74	-90.7772
75	-91.561
76	-92.3169
77	-93.0446
78	-93.744
79	-94.4148
80	-95.0569
81	-95.6701
82	-96.254
83	-96.8087
84	-97.3339
85	-97.8294
86	-98.2952
87	-98.7309
88	-99.1367
89	-99.5122
90	-99.8574
91	-100.172
92	-100.456
93	-100.71
94	-100.933
95	-101.125
96	-101.287
97	-101.417
98	-101.517
99	-101.586
100	-101.624
101	-101.631
102	-101.607
103	-101.551
104	-101.466
105	-101.349
106	-101.201
107	-101.022
108	-100.813
109	-100.573
110	-100.302
111	-100.001
112	-99.6693
113	-99.3073
114	-98.9149
115	-98.4925
116	-98.0401
117	-97.5578
118	-97.0457
119	-96.5041
120	-95.9332
121	-95.333
122	-94.7037
123	-94.0456
124	-93.3589
125	-92.6437
126	-91.9003
127	-91.1289
128	-90.3298
129	-89.5031
130	-88.6492
131	-87.7683
132	-86.8606
133	-85.9265
134	-84.9662
135	-83.98
136	-82.9682
137	-81.9312
138	-80.8692
139	-79.7826
140	-78.6717
141	-77.5368
142	-76.3783
143	-75.1965
144	-73.9918
145	-72.7646
146	-71.5152
147	-70.244
148	-68.9515
149	-67.6379
150	-66.3037
151	-64.9494
152	-63.5752
153	-62.1817
154	-60.7692
155	-59.3383
156	-57.8892
157	-56.4225
158	-54.9387
159	-53.4381
160	-51.9212
161	-50.3885
162	-48.8405
163	-47.2775
164	-45.7002
165	-44.109
166	-42.5043
167	-40.8867
168	-39.2566
169	-37.6146
170	-35.9611
171	-34.2966
172	-32.6217
173	-30.9369
174	-29.2426
175	-27.5395
176	-25.8279
177	-24.1085
178	-22.3817
179	-20.6482
180	-18.9083
181	-17.1626
182	-15.4118
183	-13.6562
184	-11.8965
185	-10.1332
186	-8.36676
187	-6.59779
188	-4.82681
189	-3.05435
190	-1.28097
191	0.492803
192	2.26643
193	4.03936
194	5.81106
195	7.58099
196	9.34862
197	11.1134
198	12.8748
199	14.6323
200	16.3853
201	18.1333
202	19.8758
203	21.6122
204	23.3421
205	25.0648
206	26.7799
207	28.4869
208	30.1852
209	31.8743
210	33.5536
211	35.2228
212	36.8812
213	38.5284
214	40.1639
215	41.7871
216	43.3976
217	44.9948
218	46.5784
219	48.1478
220	49.7025
221	51.2421
222	52.766
223	54.2739
224	55.7653
225	57.2397
226	58.6966
227	60.1356
228	61.5564
229	62.9584
230	64.3412
231	65.7044
232	67.0476
233	68.3704
234	69.6723
235	70.953
236	72.2121
237	73.4493
238	74.664
239	75.856
240	77.0249
241	78.1703
242	79.2919
243	80.3894
244	81.4624
245	82.5105
246	83.5336
247	84.5311
248	85.503
249	86.4488
250	87.3682
251	88.2611
252	89.127
253	89.9658
254	90.7772
255	91.561
256	92.3169
257	93.0446
258	93.744
259	94.4148
260	95.0569
261	95.6701
262	96.254
263	96.8087
264	97.3339
265	97.8294
266	98.2952
267	98.7309
268	99.1367
269	99.5122
270	99.8574
271	100.172
272	100.456
273	100.71
274	100.933
275	101.125
276	101.287
277	101.417
278	101.517
279	101.586
280	101.624
281	101.631
282	101.607
283	101.551
284	101.466
285	101.349
286	101.201
287	101.022
288	100.813
289	100.573
290	100.302
291	100.001
292	99.6693
293	99.3073
294	98.9149
295	98.4925
296	98.0401
297	97.5578
298	97.0457
299	96.5041
300	95.9332
301	95.333
302	94.7037
303	94.0456
304	93.3589
305	92.6437
306	91.9003
307	91.1289
308	90.3298
309	89.5031
310	88.6492
311	87.7683
312	86.8606
313	85.9265
314	84.9662
315	83.98
316	82.9682
317	81.9312
318	80.8692
319	79.7826
320	78.6717
321	77.5368
322	76.3783
323	75.1965
324	73.9918
325	72.7646
326	71.5152
327	70.244
328	68.9515
329	67.6379
330	66.3037
331	64.9494
332	63.5752
333	62.1817
334	60.7692
335	59.3383
336	57.8892
337	56.4225
338	54.9387
339	53.4381
340	51.9212
341	50.3885
342	48.8405
343	47.2775
344	45.7002
345	44.109
346	42.5043
347	40.8867
348	39.2566
349	37.6146
350	35.9611
351	34.2966
352	32.6217
353	30.9369
354	29.2426
355	27.5395
356	25.8279
357	24.1085
358	22.3817
359	20.6482
360	18.9083
Phase Current ib
0	77.0249
1	78.1703
2	79.2919
3	80.3894
4	81.4624
5	82.5105
6	83.5336
7	84.5311
8	85.503
9	86.4488
10	87.3682
11	88.2611
12	89.127
13	89.9658
14	90.7772
15	91.561
16	92.3169
17	93.0446
18	93.744
19	94.4148
20	95.0569
21	95.6701
22	96.254
23	96.8087
24	97.3339
25	97.8294
26	98.2952
27	98.7309
28	99.1367
29	99.5122
30	99.8574
31	100.172
32	100.456
33	100.71
34	100.933
35	101.125
36	101.287
37	101.417
38	101.517
39	101.586
40	101.624
41	101.631
42	101.607
43	101.551
44	101.466
45	101.349
46	101.201
47	101.022
48	100.813
49	100.573
50	100.302
51	100.001
52	99.6693
53	99.3073
54	98.9149
55	98.4925
56	98.0401
57	97.5578
58	97.0457
59	96.5041
60	95.9332
61	95.333
62	94.7037
63	94.0456
64	93.3589
65	92.6437
66	91.9003
67	91.1289
68	90.3298
69	89.5031
70	88.6492
71	87.7683
72	86.8606
73	85.9265
74	84.9662
75	83.98
76	82.9682
77	81.9312
78	80.8692
79	79.7826
80	78.6717
81	77.5368
82	76.3783
83	75.1965
84	73.9918
85	72.7646
86	71.5152
87	70.244
88	68.9515
89	67.6379
90	66.3037
91	64.9494
92	63.5752
93	62.1817
94	60.7692
95	59.3383
96	57.8892
97	56.4225
98	54.9387
99	53.4381
100	51.9212
101	50.3885
102	48.8405
103	47.2775
104	45.7002
105	44.109
106	42.5043
107	40.8867
108	39.2566
109	37.6146
110	35.9611
111	34.2966
112	32.6217
113	30.9369
114	29.2426
115	27.5395
116	25.8279
117	24.1085
118	22.3817
119	20.6482
120	18.9083
121	17.1626
122	15.4118
123	13.6562
124	11.8965
125	10.1332
126	8.36676
127	6.59779
128	4.82681
129	3.05435
130	1.28097
131	-0.492803
132	-2.26643
133	-4.03936
134	-5.81106
135	-7.58099
136	-9.34862
137	-11.1134
138	-12.8748
139	-14.6323
140	-16.3853
141	-18.1333
142	-19.8758
143	-21.6122
144	-23.3421
145	-25.0648
146	-26.7799
147	-28.4869
148	-30.1852
149	-31.8743
150	-33.5536
151	-35.2228
152	-36.8812
153	-38.5284
154	-40.1639
155	-41.7871
156	-43.3976
157	-44.9948
158	-46.5784
159	-48.1478
160	-49.7025
161	-51.2421
162	-52.766
163	-54.2739
164	-55.7653
165	-57.2397
166	-58.6966
167	-60.1356
168	-61.5564
169	-62.9584
170	-64.3412
171	-65.7044
172	-67.0476
173	-68.3704
174	-69.6723
175	-70.953
176	-72.2121
177	-73.4493
178	-74.664
179	-75.856
180	-77.0249
181	-78.1703
182	-79.2919
183	-80.3894
184	-81.4624
185	-82.5105
186	-83.5336
187	-84.5311
188	-85.503
189	-86.4488
190	-87.3682
191	-88.2611
192	-89.127
193	-89.9658
194	-90.7772
195	-91.561
196	-92.3169
197	-93.0446
198	-93.744
199	-94.4148
200	-95.0569
201	-95.6701
202	-96.254
203	-96.8087
204	-97.3339
205	-97.8294
206	-98.2952
207	-98.7309
208	-99.1367
209	-99.5122
210	-99.8574
211	-100.172
212	-100.456
213	-100.71
214	-100.933
215	-101.125
216	-101.287
217	-101.417
218	-101.517
219	-101.586
220	-101.624
221	-101.631
222	-101.607
223	-101.551
224	-101.466
225	-101.349
226	-101.201
227	-101.022
228	-100.813
229	-100.573
230	-100.302
231	-100.001
232	-99.6693
233	-99.3073
234	-98.9149
235	-98.4925
236	-98.0401
237	-97.5578
238	-97.0457
239	-96.5041
240	-95.9332
241	-95.333
242	-94.7037
243	-94.0456
244	-93.3589
245	-92.6437
246	-91.9003
247	-91.1289
248	-90.3298
249	-89.5031
250	-88.6492
251	-87.7683
252	-86.8606
253	-85.9265
254	-84.9662
255	-83.98
256	-82.9682
257	-81.9312
258	-80.8692
259	-79.7826
260	-78.6717
261	-77.5368
262	-76.3783
263	-75.1965
264	-73.9918
265	-72.7646
266	-71.5152
267	-70.244
268	-68.9515
269	-67.6379
270	-66.3037
271	-64.9494
272	-63.5752
273	-62.1817
274	-60.7692
275	-59.3383
276	-57.8892
277	-56.4225
278	-54.9387
279	-53.4381
280	-51.9212
281	-50.3885
282	-48.8405
283	-47.2775
284	-45.7002
285	-44.109
286	-42.5043
287	-40.8867
288	-39.2566
289	-37.6146
290	-35.9611
291	-34.2966
292	-32.6217
293	-30.9369
294	-29.2426
295	-27.5395
296	-25.8279
297	-24.1085
298	-22.3817
299	-20.6482
300	-18.9083
301	-17.1626
302	-15.4118
303	-13.6562
304	-11.8965
305	-10.1332
306	-8.36676
307	-6.59779
308	-4.82681
309	-3.05435
310	-1.28097
311	0.492803
312	2.26643
313	4.03936
314	5.81106
315	7.58099
316	9.34862
317	11.1134
318	12.8748
319	14.6323
320	16.3853
321	18.1333
322	19.8758
323	21.6122
324	23.3421
325	25.0648
326	26.7799
327	28.4869
328	30.1852
329	31.8743
330	33.5536
331	35.2228
332	36.8812
333	38.5284
334	40.1639
335	41.7871
336	43.3976
337	44.9948
338	46.5784
339	48.1478
340	49.7025
341	51.2421
342	52.766
343	54.2739
344	55.7653
345	57.2397
346	58.6966
347	60.1356
348	61.5564
349	62.9584
350	64.3412
351	65.7044
352	67.0476
353	68.3704
354	69.6723
355	70.953
356	72.2121
357	73.4493
358	74.664
359	75.856
360	77.0249
Phase Current ic
