Induced Winding Voltages at Rated Speed
Air-Gap Position (elec. degrees)
Voltage (V)
0	-207.376029
1	-207.376570
2	-207.376839
3	-207.376839
4	-207.376570
5	-207.376029
6	-207.375217
7	-207.374129
8	-207.372761
9	-207.371108
10	-207.369163
11	-207.366903
12	-207.364335
13	-207.361432
14	-207.358114
15	-207.354312
16	-207.350000
17	-207.345148
18	-207.339703
19	-207.333534
20	-207.326516
21	-207.318484
22	-207.309107
23	-207.297739
24	-207.283815
25	-207.267081
26	-207.246630
27	-207.220966
28	-207.189072
29	-207.149917
30	-207.101910
31	-207.043428
32	-206.972630
33	-206.886511
34	-206.779299
35	-206.644838
36	-206.478958
37	-206.269129
38	-205.985487
39	-205.579673
40	-204.869569
41	-203.695122
42	-202.031193
43	-199.830117
44	-197.026886
45	-193.525732
46	-189.226171
47	-184.800994
48	-180.994967
49	-177.675618
50	-174.392306
51	-171.733503
52	-169.285609
53	-166.767675
54	-164.145662
55	-161.462442
56	-158.761739
57	-155.958721
58	-152.777879
59	-149.257081
60	-145.154257
61	-140.255460
62	-135.440812
63	-131.245402
64	-127.536762
65	-123.940165
66	-120.988074
67	-118.246999
68	-115.459684
69	-112.576464
70	-109.636209
71	-106.678606
72	-103.614786
73	-100.165260
74	-96.352339
75	-91.957711
76	-86.747555
77	-81.546008
78	-76.964113
79	-72.869530
80	-68.677971
81	-65.129383
82	-61.677135
83	-57.918302
84	-53.906649
85	-49.453443
86	-44.539556
87	-39.281392
88	-33.625436
89	-27.609268
90	-20.765004
91	-12.459347
92	-4.110882
93	4.110882
94	12.459347
95	20.765004
96	27.609268
97	33.625436
98	39.281392
99	44.539556
100	49.453443
101	53.906649
102	57.918302
103	61.677135
104	65.129383
105	68.677971
106	72.869530
107	76.964113
108	81.546008
109	86.747555
110	91.957711
111	96.352339
112	100.165260
113	103.614786
114	106.678606
115	109.636209
116	112.576464
117	115.459684
118	118.246999
119	120.988074
120	123.940165
121	127.536762
122	131.245402
123	135.440812
124	140.255460
125	145.154257
126	149.257081
127	152.777879
128	155.958721
129	158.761739
130	161.462442
131	164.145662
132	166.767675
133	169.285609
134	171.733503
135	174.392306
136	177.675618
137	180.994967
138	184.800994
139	189.226171
140	193.525732
141	197.026886
142	199.830117
143	202.031193
144	203.695122
145	204.869569
146	205.579673
147	205.985487
148	206.269129
149	206.478958
150	206.644838
151	206.779299
152	206.886511
153	206.972630
154	207.043428
155	207.101910
156	207.149917
157	207.189072
158	207.220966
159	207.246630
160	207.267081
161	207.283815
162	207.297739
163	207.309107
164	207.318484
165	207.326516
166	207.333534
167	207.339703
168	207.345148
169	207.350000
170	207.354312
171	207.358114
172	207.361432
173	207.364335
174	207.366903
175	207.369163
176	207.371108
177	207.372761
178	207.374129
179	207.375217
180	207.376029
181	207.376570
182	207.376839
183	207.376839
184	207.376570
185	207.376029
186	207.375217
187	207.374129
188	207.372761
189	207.371108
190	207.369163
191	207.366903
192	207.364335
193	207.361432
194	207.358114
195	207.354312
196	207.350000
197	207.345148
198	207.339703
199	207.333534
200	207.326516
201	207.318484
202	207.309107
203	207.297739
204	207.283815
205	207.267081
206	207.246630
207	207.220966
208	207.189072
209	207.149917
210	207.101910
211	207.043428
212	206.972630
213	206.886511
214	206.779299
215	206.644838
216	206.478958
217	206.269129
218	205.985487
219	205.579673
220	204.869569
221	203.695122
222	202.031193
223	199.830117
224	197.026886
225	193.525732
226	189.226171
227	184.800994
228	180.994967
229	177.675618
230	174.392306
231	171.733503
232	169.285609
233	166.767675
234	164.145662
235	161.462442
236	158.761739
237	155.958721
238	152.777879
239	149.257081
240	145.154257
241	140.255460
242	135.440812
243	131.245402
244	127.536762
245	123.940165
246	120.988074
247	118.246999
248	115.459684
249	112.576464
250	109.636209
251	106.678606
252	103.614786
253	100.165260
254	96.352339
255	91.957711
256	86.747555
257	81.546008
258	76.964113
259	72.869530
260	68.677971
261	65.129383
262	61.677135
263	57.918302
264	53.906649
265	49.453443
266	44.539556
267	39.281392
268	33.625436
269	27.609268
270	20.765004
271	12.459347
272	4.110882
273	-4.110882
274	-12.459347
275	-20.765004
276	-27.609268
277	-33.625436
278	-39.281392
279	-44.539556
280	-49.453443
281	-53.906649
282	-57.918302
283	-61.677135
284	-65.129383
285	-68.677971
286	-72.869530
287	-76.964113
288	-81.546008
289	-86.747555
290	-91.957711
291	-96.352339
292	-100.165260
293	-103.614786
294	-106.678606
295	-109.636209
296	-112.576464
297	-115.459684
298	-118.246999
299	-120.988074
300	-123.940165
301	-127.536762
302	-131.245402
303	-135.440812
304	-140.255460
305	-145.154257
306	-149.257081
307	-152.777879
308	-155.958721
309	-158.761739
310	-161.462442
311	-164.145662
312	-166.767675
313	-169.285609
314	-171.733503
315	-174.392306
316	-177.675618
317	-180.994967
318	-184.800994
319	-189.226171
320	-193.525732
321	-197.026886
322	-199.830117
323	-202.031193
324	-203.695122
325	-204.869569
326	-205.579673
327	-205.985487
328	-206.269129
329	-206.478958
330	-206.644838
331	-206.779299
332	-206.886511
333	-206.972630
334	-207.043428
335	-207.101910
336	-207.149917
337	-207.189072
338	-207.220966
339	-207.246630
340	-207.267081
341	-207.283815
342	-207.297739
343	-207.309107
344	-207.318484
345	-207.326516
346	-207.333534
347	-207.339703
348	-207.345148
349	-207.350000
350	-207.354312
351	-207.358114
352	-207.361432
353	-207.364335
354	-207.366903
355	-207.369163
356	-207.371108
357	-207.372761
358	-207.374129
359	-207.375217
360	-207.376029
Phase Voltage ea
0	-352.530287
1	-347.632029
2	-342.817651
3	-338.622241
4	-334.913332
5	-331.316195
6	-328.363290
7	-325.621128
8	-322.832444
9	-319.947572
10	-317.005372
11	-314.045509
12	-310.979121
13	-307.526692
14	-303.710453
15	-299.312023
16	-294.097556
17	-288.891156
18	-284.303816
19	-280.203065
20	-276.004487
21	-272.447867
22	-268.986242
23	-265.216042
24	-261.190465
25	-256.720525
26	-251.786186
27	-246.502358
28	-240.814508
29	-234.759185
30	-227.866915
31	-219.502775
32	-211.083512
33	-202.775629
34	-194.319952
35	-185.879834
36	-178.869690
37	-172.643693
38	-166.704095
39	-161.040117
40	-155.416126
41	-149.788473
42	-144.112891
43	-138.152982
44	-131.897502
45	-124.847761
46	-116.356640
47	-107.836881
48	-99.448959
49	-90.928063
50	-82.434595
51	-75.381164
52	-69.120350
53	-63.152889
54	-57.467057
55	-51.826233
56	-46.185275
57	-40.499037
58	-34.530880
59	-28.269007
60	-21.214092
61	-12.718697
62	-4.195410
63	4.195410
64	12.718697
65	21.214092
66	28.269007
67	34.530880
68	40.499037
69	46.185275
70	51.826233
71	57.467057
72	63.152889
73	69.120350
74	75.381164
75	82.434595
76	90.928063
77	99.448959
78	107.836881
79	116.356640
80	124.847761
81	131.897502
82	138.152982
83	144.112891
84	149.788473
85	155.416126
86	161.040117
87	166.704095
88	172.643693
89	178.869690
90	185.879834
91	194.319952
92	202.775629
93	211.083512
94	219.502775
95	227.866915
96	234.759185
97	240.814508
98	246.502358
99	251.786186
100	256.720525
101	261.190465
102	265.216042
103	268.986242
104	272.447867
105	276.004487
106	280.203065
107	284.303816
108	288.891156
109	294.097556
110	299.312023
111	303.710453
112	307.526692
113	310.979121
114	314.045509
115	317.005372
116	319.947572
117	322.832444
118	325.621128
119	328.363290
120	331.316195
121	334.913332
122	338.622241
123	342.817651
124	347.632029
125	352.530287
126	356.632297
127	360.152008
128	363.331481
129	366.132847
130	368.831605
131	371.512565
132	374.132011
133	376.647041
134	379.091617
135	381.746618
136	385.025619
137	388.340115
138	392.140697
139	396.559705
140	400.852248
141	404.345369
142	407.139223
143	409.328933
144	410.978937
145	412.136650
146	412.826303
147	413.206453
148	413.458201
149	413.628875
150	413.746749
151	413.822727
152	413.859141
153	413.859141
154	413.822727
155	413.746749
156	413.628875
157	413.458201
158	413.206453
159	412.826303
160	412.136650
161	410.978937
162	409.328933
163	407.139223
164	404.345369
165	400.852248
166	396.559705
167	392.140697
168	388.340115
169	385.025619
170	381.746618
171	379.091617
172	376.647041
173	374.132011
174	371.512565
175	368.831605
176	366.132847
177	363.331481
178	360.152008
179	356.632297
180	352.530287
181	347.632029
182	342.817651
183	338.622241
184	334.913332
185	331.316195
186	328.363290
187	325.621128
188	322.832444
189	319.947572
190	317.005372
191	314.045509
192	310.979121
193	307.526692
194	303.710453
195	299.312023
196	294.097556
197	288.891156
198	284.303816
199	280.203065
200	276.004487
201	272.447867
202	268.986242
203	265.216042
204	261.190465
205	256.720525
206	251.786186
207	246.502358
208	240.814508
209	234.759185
210	227.866915
211	219.502775
212	211.083512
213	202.775629
214	194.319952
215	185.879834
216	178.869690
217	172.643693
218	166.704095
219	161.040117
220	155.416126
221	149.788473
222	144.112891
223	138.152982
224	131.897502
225	124.847761
226	116.356640
227	107.836881
228	99.448959
229	90.928063
230	82.434595
231	75.381164
232	69.120350
233	63.152889
234	57.467057
235	51.826233
236	46.185275
237	40.499037
238	34.530880
239	28.269007
240	21.214092
241	12.718697
242	4.195410
243	-4.195410
244	-12.718697
245	-21.214092
246	-28.269007
247	-34.530880
248	-40.499037
249	-46.185275
250	-51.826233
251	-57.467057
252	-63.152889
253	-69.120350
254	-75.381164
255	-82.434595
256	-90.928063
257	-99.448959
258	-107.836881
259	-116.356640
260	-124.847761
261	-131.897502
262	-138.152982
263	-144.112891
264	-149.788473
265	-155.416126
266	-161.040117
267	-166.704095
268	-172.643693
269	-178.869690
270	-185.879834
271	-194.319952
272	-202.775629
273	-211.083512
274	-219.502775
275	-227.866915
276	-234.759185
277	-240.814508
278	-246.502358
279	-251.786186
280	-256.720525
281	-261.190465
282	-265.216042
283	-268.986242
284	-272.447867
285	-276.004487
286	-280.203065
287	-284.303816
288	-288.891156
289	-294.097556
290	-299.312023
291	-303.710453
292	-307.526692
293	-310.979121
294	-314.045509
295	-317.005372
296	-319.947572
297	-322.832444
298	-325.621128
299	-328.363290
300	-331.316195
301	-334.913332
302	-338.622241
303	-342.817651
304	-347.632029
305	-352.530287
306	-356.632297
307	-360.152008
308	-363.331481
309	-366.132847
310	-368.831605
311	-371.512565
312	-374.132011
313	-376.647041
314	-379.091617
315	-381.746618
316	-385.025619
317	-388.340115
318	-392.140697
319	-396.559705
320	-400.852248
321	-404.345369
322	-407.139223
323	-409.328933
324	-410.978937
325	-412.136650
326	-412.826303
327	-413.206453
328	-413.458201
329	-413.628875
330	-413.746749
331	-413.822727
332	-413.859141
333	-413.859141
334	-413.822727
335	-413.746749
336	-413.628875
337	-413.458201
338	-413.206453
339	-412.826303
340	-412.136650
341	-410.978937
342	-409.328933
343	-407.139223
344	-404.345369
345	-400.852248
346	-396.559705
347	-392.140697
348	-388.340115
349	-385.025619
350	-381.746618
351	-379.091617
352	-376.647041
353	-374.132011
354	-371.512565
355	-368.831605
356	-366.132847
357	-363.331481
358	-360.152008
359	-356.632297
360	-352.530287
Line Voltage eab
