Induced Winding Voltages at Rated Speed
Air-Gap Position (elec. degrees)
Voltage (V)
0	-179.501474
1	-181.181825
2	-182.610155
3	-183.736343
4	-182.610155
5	-181.181825
6	-179.501474
7	-176.960223
8	-174.180801
9	-171.130910
10	-168.386557
11	-166.381471
12	-165.245410
13	-164.488854
14	-164.784231
15	-165.484827
16	-167.082251
17	-169.419135
18	-172.061805
19	-174.434316
20	-176.491340
21	-177.605725
22	-178.477014
23	-179.047450
24	-177.367185
25	-175.387458
26	-173.151464
27	-169.740165
28	-166.045823
29	-162.087474
30	-158.442017
31	-155.245154
32	-152.542168
33	-150.205974
34	-148.395643
35	-146.597873
36	-145.175112
37	-144.042892
38	-142.903197
39	-141.756933
40	-140.577656
41	-139.628017
42	-138.682518
43	-137.734230
44	-136.784159
45	-135.832682
46	-134.872163
47	-133.677047
48	-132.509259
49	-131.341020
50	-130.172369
51	-128.703817
52	-126.848741
53	-124.967722
54	-122.544190
55	-119.732292
56	-116.399066
57	-112.575950
58	-108.376185
59	-104.331504
60	-100.421149
61	-97.439351
62	-94.521947
63	-91.755821
64	-90.112388
65	-88.611582
66	-87.288747
67	-85.888486
68	-84.580858
69	-83.374738
70	-82.224147
71	-80.805673
72	-79.016704
73	-77.210084
74	-74.861066
75	-72.089954
76	-68.754100
77	-64.896698
78	-60.607091
79	-56.371037
80	-52.126787
81	-48.568072
82	-44.880163
83	-41.200870
84	-37.521540
85	-33.833520
86	-30.274619
87	-25.629231
88	-20.864322
89	-16.045778
90	-11.659343
91	-7.494832
92	-3.536432
93	0.000000
94	3.536432
95	7.494832
96	11.659343
97	16.045778
98	20.864322
99	25.629231
100	30.274619
101	33.833520
102	37.521540
103	41.200870
104	44.880163
105	48.568072
106	52.126787
107	56.371037
108	60.607091
109	64.896698
110	68.754100
111	72.089954
112	74.861066
113	77.210084
114	79.016704
115	80.805673
116	82.224147
117	83.374738
118	84.580858
119	85.888486
120	87.288747
121	88.611582
122	90.112388
123	91.755821
124	94.521947
125	97.439351
126	100.421149
127	104.331504
128	108.376185
129	112.575950
130	116.399066
131	119.732292
132	122.544190
133	124.967722
134	126.848741
135	128.703817
136	130.172369
137	131.341020
138	132.509259
139	133.677047
140	134.872163
141	135.832682
142	136.784159
143	137.734230
144	138.682518
145	139.628017
146	140.577656
147	141.756933
148	142.903197
149	144.042892
150	145.175112
151	146.597873
152	148.395643
153	150.205974
154	152.542168
155	155.245154
156	158.442017
157	162.087474
158	166.045823
159	169.740165
160	173.151464
161	175.387458
162	177.367185
163	179.047450
164	178.477014
165	177.605725
166	176.491340
167	174.434316
168	172.061805
169	169.419135
170	167.082251
171	165.484827
172	164.784231
173	164.488854
174	165.245410
175	166.381471
176	168.386557
177	171.130910
178	174.180801
179	176.960223
180	179.501474
181	181.181825
182	182.610155
183	183.736343
184	182.610155
185	181.181825
186	179.501474
187	176.960223
188	174.180801
189	171.130910
190	168.386557
191	166.381471
192	165.245410
193	164.488854
194	164.784231
195	165.484827
196	167.082251
197	169.419135
198	172.061805
199	174.434316
200	176.491340
201	177.605725
202	178.477014
203	179.047450
204	177.367185
205	175.387458
206	173.151464
207	169.740165
208	166.045823
209	162.087474
210	158.442017
211	155.245154
212	152.542168
213	150.205974
214	148.395643
215	146.597873
216	145.175112
217	144.042892
218	142.903197
219	141.756933
220	140.577656
221	139.628017
222	138.682518
223	137.734230
224	136.784159
225	135.832682
226	134.872163
227	133.677047
228	132.509259
229	131.341020
230	130.172369
231	128.703817
232	126.848741
233	124.967722
234	122.544190
235	119.732292
236	116.399066
237	112.575950
238	108.376185
239	104.331504
240	100.421149
241	97.439351
242	94.521947
243	91.755821
244	90.112388
245	88.611582
246	87.288747
247	85.888486
248	84.580858
249	83.374738
250	82.224147
251	80.805673
252	79.016704
253	77.210084
254	74.861066
255	72.089954
256	68.754100
257	64.896698
258	60.607091
259	56.371037
260	52.126787
261	48.568072
262	44.880163
263	41.200870
264	37.521540
265	33.833520
266	30.274619
267	25.629231
268	20.864322
269	16.045778
270	11.659343
271	7.494832
272	3.536432
273	-0.000000
274	-3.536432
275	-7.494832
276	-11.659343
277	-16.045778
278	-20.864322
279	-25.629231
280	-30.274619
281	-33.833520
282	-37.521540
283	-41.200870
284	-44.880163
285	-48.568072
286	-52.126787
287	-56.371037
288	-60.607091
289	-64.896698
290	-68.754100
291	-72.089954
292	-74.861066
293	-77.210084
294	-79.016704
295	-80.805673
296	-82.224147
297	-83.374738
298	-84.580858
299	-85.888486
300	-87.288747
301	-88.611582
302	-90.112388
303	-91.755821
304	-94.521947
305	-97.439351
306	-100.421149
307	-104.331504
308	-108.376185
309	-112.575950
310	-116.399066
311	-119.732292
312	-122.544190
313	-124.967722
314	-126.848741
315	-128.703817
316	-130.172369
317	-131.341020
318	-132.509259
319	-133.677047
320	-134.872163
321	-135.832682
322	-136.784159
323	-137.734230
324	-138.682518
325	-139.628017
326	-140.577656
327	-141.756933
328	-142.903197
329	-144.042892
330	-145.175112
331	-146.597873
332	-148.395643
333	-150.205974
334	-152.542168
335	-155.245154
336	-158.442017
337	-162.087474
338	-166.045823
339	-169.740165
340	-173.151464
341	-175.387458
342	-177.367185
343	-179.047450
344	-178.477014
345	-177.605725
346	-176.491340
347	-174.434316
348	-172.061805
349	-169.419135
350	-167.082251
351	-165.484827
352	-164.784231
353	-164.488854
354	-165.245410
355	-166.381471
356	-168.386557
357	-171.130910
358	-174.180801
359	-176.960223
360	-179.501474
Phase Voltage ea
0	-279.922622
1	-278.621176
2	-277.132103
3	-275.492164
4	-272.722543
5	-269.793407
6	-266.790220
7	-262.848709
8	-258.761658
9	-254.505647
10	-250.610704
11	-247.187144
12	-244.262115
13	-241.698938
14	-239.645296
15	-237.574781
16	-235.836350
17	-234.315833
18	-232.668896
19	-230.805353
20	-228.618126
21	-226.173797
22	-223.357177
23	-220.248320
24	-214.888726
25	-209.220978
26	-203.426083
27	-195.369396
28	-186.910146
29	-178.133252
30	-170.101360
31	-162.739986
32	-156.078600
33	-150.205974
34	-144.859211
35	-139.103041
36	-133.515769
37	-127.997114
38	-122.038875
39	-116.127702
40	-110.303036
41	-105.794497
42	-101.160978
43	-96.533360
44	-91.903996
45	-87.264611
46	-82.745377
47	-77.306010
48	-71.902168
49	-66.444322
50	-61.418269
51	-56.613863
52	-51.987676
53	-47.757638
54	-43.527485
55	-38.926619
56	-34.174919
57	-29.201213
58	-23.795327
59	-18.443019
60	-13.132402
61	-8.827769
62	-4.409559
63	-0.000000
64	4.409559
65	8.827769
66	13.132402
67	18.443019
68	23.795327
69	29.201213
70	34.174919
71	38.926619
72	43.527485
73	47.757638
74	51.987676
75	56.613863
76	61.418269
77	66.444322
78	71.902168
79	77.306010
80	82.745377
81	87.264611
82	91.903996
83	96.533360
84	101.160978
85	105.794497
86	110.303036
87	116.127702
88	122.038875
89	127.997114
90	133.515769
91	139.103041
92	144.859211
93	150.205974
94	156.078600
95	162.739986
96	170.101360
97	178.133252
98	186.910146
99	195.369396
100	203.426083
101	209.220978
102	214.888726
103	220.248320
104	223.357177
105	226.173797
106	228.618126
107	230.805353
108	232.668896
109	234.315833
110	235.836350
111	237.574781
112	239.645296
113	241.698938
114	244.262115
115	247.187144
116	250.610704
117	254.505647
118	258.761658
119	262.848709
120	266.790220
121	269.793407
122	272.722543
123	275.492164
124	277.132103
125	278.621176
126	279.922622
127	281.291727
128	282.556985
129	283.706860
130	284.785623
131	286.113763
132	287.789600
133	289.456577
134	291.632972
135	294.188644
136	297.254619
137	300.760155
138	304.571064
139	308.111363
140	311.363503
141	313.438407
142	315.261173
143	316.781681
144	316.049704
145	315.015475
146	313.729119
147	311.497098
148	308.949021
149	306.130366
150	303.617129
151	301.843027
152	300.937811
153	300.411949
154	300.937811
155	301.843027
156	303.617129
157	306.130366
158	308.949021
159	311.497098
160	313.729119
161	315.015475
162	316.049704
163	316.781681
164	315.261173
165	313.438407
166	311.363503
167	308.111363
168	304.571064
169	300.760155
170	297.254619
171	294.188644
172	291.632972
173	289.456577
174	287.789600
175	286.113763
176	284.785623
177	283.706860
178	282.556985
179	281.291727
180	279.922622
181	278.621176
182	277.132103
183	275.492164
184	272.722543
185	269.793407
186	266.790220
187	262.848709
188	258.761658
189	254.505647
190	250.610704
191	247.187144
192	244.262115
193	241.698938
194	239.645296
195	237.574781
196	235.836350
197	234.315833
198	232.668896
199	230.805353
200	228.618126
201	226.173797
202	223.357177
203	220.248320
204	214.888726
205	209.220978
206	203.426083
207	195.369396
208	186.910146
209	178.133252
210	170.101360
211	162.739986
212	156.078600
213	150.205974
214	144.859211
215	139.103041
216	133.515769
217	127.997114
218	122.038875
219	116.127702
220	110.303036
221	105.794497
222	101.160978
223	96.533360
224	91.903996
225	87.264611
226	82.745377
227	77.306010
228	71.902168
229	66.444322
230	61.418269
231	56.613863
232	51.987676
233	47.757638
234	43.527485
235	38.926619
236	34.174919
237	29.201213
238	23.795327
239	18.443019
240	13.132402
241	8.827769
242	4.409559
243	0.000000
244	-4.409559
245	-8.827769
246	-13.132402
247	-18.443019
248	-23.795327
249	-29.201213
250	-34.174919
251	-38.926619
252	-43.527485
253	-47.757638
254	-51.987676
255	-56.613863
256	-61.418269
257	-66.444322
258	-71.902168
259	-77.306010
260	-82.745377
261	-87.264611
262	-91.903996
263	-96.533360
264	-101.160978
265	-105.794497
266	-110.303036
267	-116.127702
268	-122.038875
269	-127.997114
270	-133.515769
271	-139.103041
272	-144.859211
273	-150.205974
274	-156.078600
275	-162.739986
276	-170.101360
277	-178.133252
278	-186.910146
279	-195.369396
280	-203.426083
281	-209.220978
282	-214.888726
283	-220.248320
284	-223.357177
285	-226.173797
286	-228.618126
287	-230.805353
288	-232.668896
289	-234.315833
290	-235.836350
291	-237.574781
292	-239.645296
293	-241.698938
294	-244.262115
295	-247.187144
296	-250.610704
297	-254.505647
298	-258.761658
299	-262.848709
300	-266.790220
301	-269.793407
302	-272.722543
303	-275.492164
304	-277.132103
305	-278.621176
306	-279.922622
307	-281.291727
308	-282.556985
309	-283.706860
310	-284.785623
311	-286.113763
312	-287.789600
313	-289.456577
314	-291.632972
315	-294.188644
316	-297.254619
317	-300.760155
318	-304.571064
319	-308.111363
320	-311.363503
321	-313.438407
322	-315.261173
323	-316.781681
324	-316.049704
325	-315.015475
326	-313.729119
327	-311.497098
328	-308.949021
329	-306.130366
330	-303.617129
331	-301.843027
332	-300.937811
333	-300.411949
334	-300.937811
335	-301.843027
336	-303.617129
337	-306.130366
338	-308.949021
339	-311.497098
340	-313.729119
341	-315.015475
342	-316.049704
343	-316.781681
344	-315.261173
345	-313.438407
346	-311.363503
347	-308.111363
348	-304.571064
349	-300.760155
350	-297.254619
351	-294.188644
352	-291.632972
353	-289.456577
354	-287.789600
355	-286.113763
356	-284.785623
357	-283.706860
358	-282.556985
359	-281.291727
360	-279.922622
Line Voltage eab
