Induced Winding Voltages at Rated Speed
Air-Gap Position (elec. degrees)
Voltage (V)
0	-232.608946
1	-228.650213
2	-224.682985
3	-220.705634
4	-218.384771
5	-216.469258
6	-214.527205
7	-212.552312
8	-210.534004
9	-208.463563
10	-206.949382
11	-205.656099
12	-204.262832
13	-202.737898
14	-201.038913
15	-199.066109
16	-196.694101
17	-193.578001
18	-189.511239
19	-184.185957
20	-178.159938
21	-165.805955
22	-153.010569
23	-136.124503
24	-114.697226
25	-93.794301
26	-75.856502
27	-62.092472
28	-52.395128
29	-44.135293
30	-37.608887
31	-33.131352
32	-28.648720
33	-24.115357
34	-21.254684
35	-18.822350
36	-16.390016
37	-13.957682
38	-11.525348
39	-9.093014
40	-7.230478
41	-5.422859
42	-3.615239
43	-1.807620
44	0.000000
45	1.807620
46	3.615239
47	5.422859
48	7.230478
49	9.093014
50	11.525348
51	13.957682
52	16.390016
53	18.822350
54	21.254684
55	24.115357
56	28.648720
57	33.131352
58	37.608887
59	44.135293
60	52.395128
61	62.092472
62	75.856502
63	93.794301
64	114.697226
65	136.124503
66	153.010569
67	165.805955
68	178.159938
69	184.185957
70	189.511239
71	193.578001
72	196.694101
73	199.066109
74	201.038913
75	202.737898
76	204.262832
77	205.656099
78	206.949382
79	208.463563
80	210.534004
81	212.552312
82	214.527205
83	216.469258
84	218.384771
85	220.705634
86	224.682985
87	228.650213
88	232.608946
89	238.609141
90	246.337590
91	255.500548
92	268.722747
93	286.066003
94	306.372663
95	327.202308
96	343.489766
97	355.685782
98	367.439743
99	372.865169
100	377.538582
101	380.705305
102	382.920955
103	384.392160
104	385.463866
105	386.261487
106	386.884810
107	387.376236
108	387.767464
109	388.076761
110	388.321572
111	388.514077
112	388.663006
113	388.778943
114	388.868201
115	388.934337
116	388.984143
117	389.023702
118	389.054639
119	389.078044
120	389.096062
121	389.110956
122	389.123378
123	389.133693
124	389.142157
125	389.149120
126	389.154968
127	389.159903
128	389.164025
129	389.167401
130	389.170077
131	389.172094
132	389.173485
133	389.174293
134	389.174560
135	389.174293
136	389.173485
137	389.172094
138	389.170077
139	389.167401
140	389.164025
141	389.159903
142	389.154968
143	389.149120
144	389.142157
145	389.133693
146	389.123378
147	389.110956
148	389.096062
149	389.078044
150	389.054639
151	389.023702
152	388.984143
153	388.934337
154	388.868201
155	388.778943
156	388.663006
157	388.514077
158	388.321572
159	388.076761
160	387.767464
161	387.376236
162	386.884810
163	386.261487
164	385.463866
165	384.392160
166	382.920955
167	380.705305
168	377.538582
169	372.865169
170	367.439743
171	355.685782
172	343.489766
173	327.202308
174	306.372663
175	286.066003
176	268.722747
177	255.500548
178	246.337590
179	238.609141
180	232.608946
181	228.650213
182	224.682985
183	220.705634
184	218.384771
185	216.469258
186	214.527205
187	212.552312
188	210.534004
189	208.463563
190	206.949382
191	205.656099
192	204.262832
193	202.737898
194	201.038913
195	199.066109
196	196.694101
197	193.578001
198	189.511239
199	184.185957
200	178.159938
201	165.805955
202	153.010569
203	136.124503
204	114.697226
205	93.794301
206	75.856502
207	62.092472
208	52.395128
209	44.135293
210	37.608887
211	33.131352
212	28.648720
213	24.115357
214	21.254684
215	18.822350
216	16.390016
217	13.957682
218	11.525348
219	9.093014
220	7.230478
221	5.422859
222	3.615239
223	1.807620
224	0.000000
225	-1.807620
226	-3.615239
227	-5.422859
228	-7.230478
229	-9.093014
230	-11.525348
231	-13.957682
232	-16.390016
233	-18.822350
234	-21.254684
235	-24.115357
236	-28.648720
237	-33.131352
238	-37.608887
239	-44.135293
240	-52.395128
241	-62.092472
242	-75.856502
243	-93.794301
244	-114.697226
245	-136.124503
246	-153.010569
247	-165.805955
248	-178.159938
249	-184.185957
250	-189.511239
251	-193.578001
252	-196.694101
253	-199.066109
254	-201.038913
255	-202.737898
256	-204.262832
257	-205.656099
258	-206.949382
259	-208.463563
260	-210.534004
261	-212.552312
262	-214.527205
263	-216.469258
264	-218.384771
265	-220.705634
266	-224.682985
267	-228.650213
268	-232.608946
269	-238.609141
270	-246.337590
271	-255.500548
272	-268.722747
273	-286.066003
274	-306.372663
275	-327.202308
276	-343.489766
277	-355.685782
278	-367.439743
279	-372.865169
280	-377.538582
281	-380.705305
282	-382.920955
283	-384.392160
284	-385.463866
285	-386.261487
286	-386.884810
287	-387.376236
288	-387.767464
289	-388.076761
290	-388.321572
291	-388.514077
292	-388.663006
293	-388.778943
294	-388.868201
295	-388.934337
296	-388.984143
297	-389.023702
298	-389.054639
299	-389.078044
300	-389.096062
301	-389.110956
302	-389.123378
303	-389.133693
304	-389.142157
305	-389.149120
306	-389.154968
307	-389.159903
308	-389.164025
309	-389.167401
310	-389.170077
311	-389.172094
312	-389.173485
313	-389.174293
314	-389.174560
315	-389.174293
316	-389.173485
317	-389.172094
318	-389.170077
319	-389.167401
320	-389.164025
321	-389.159903
322	-389.154968
323	-389.149120
324	-389.142157
325	-389.133693
326	-389.123378
327	-389.110956
328	-389.096062
329	-389.078044
330	-389.054639
331	-389.023702
332	-388.984143
333	-388.934337
334	-388.868201
335	-388.778943
336	-388.663006
337	-388.514077
338	-388.321572
339	-388.076761
340	-387.767464
341	-387.376236
342	-386.884810
343	-386.261487
344	-385.463866
345	-384.392160
346	-382.920955
347	-380.705305
348	-377.538582
349	-372.865169
350	-367.439743
351	-355.685782
352	-343.489766
353	-327.202308
354	-306.372663
355	-286.066003
356	-268.722747
357	-255.500548
358	-246.337590
359	-238.609141
360	-232.608946
Phase Voltage ea
0	-180.213818
1	-166.557741
2	-148.826482
3	-126.911332
4	-103.687545
5	-80.344754
6	-61.516636
7	-46.746356
8	-32.374066
9	-24.277606
10	-17.438143
11	-12.078097
12	-7.568731
13	-3.671790
14	0.000000
15	3.671790
16	7.568731
17	12.078097
18	17.438143
19	24.277606
20	32.374066
21	46.746356
22	61.516636
23	80.344754
24	103.687545
25	126.911332
26	148.826482
27	166.557741
28	180.213818
29	194.473849
30	208.728703
31	222.369196
32	240.074028
33	261.950646
34	285.117979
35	308.379958
36	327.099750
37	341.728100
38	355.914395
39	363.772155
40	370.308104
41	375.282446
42	379.305716
43	382.584540
44	385.463866
45	388.069107
46	390.500049
47	392.799094
48	394.997942
49	397.169775
50	399.846920
51	402.471759
52	405.053022
53	407.601293
54	410.122885
55	413.049694
56	417.632863
57	422.155054
58	426.663526
59	433.213336
60	441.491189
61	451.203428
62	464.979881
63	482.927994
64	503.839383
65	525.273624
66	542.165537
67	554.965858
68	567.323963
69	573.353359
70	578.681317
71	582.750095
72	585.867586
73	588.240402
74	590.213472
75	591.912192
76	593.436317
77	594.828193
78	596.119460
79	597.630965
80	599.698029
81	601.712215
82	603.682173
83	605.618378
84	607.526927
85	609.839326
86	613.806363
87	617.761169
88	621.705007
89	627.687185
90	635.392229
91	644.524250
92	657.706891
93	675.000340
94	695.240865
95	715.981252
96	732.152772
97	744.199859
98	755.761315
99	760.941930
100	765.306046
101	768.081541
102	769.805765
103	770.653647
104	770.927732
105	770.653647
106	769.805765
107	768.081541
108	765.306046
109	760.941930
110	755.761315
111	744.199859
112	732.152772
113	715.981252
114	695.240865
115	675.000340
116	657.706891
117	644.524250
118	635.392229
119	627.687185
120	621.705007
121	617.761169
122	613.806363
123	609.839326
124	607.526927
125	605.618378
126	603.682173
127	601.712215
128	599.698029
129	597.630965
130	596.119460
131	594.828193
132	593.436317
133	591.912192
134	590.213472
135	588.240402
136	585.867586
137	582.750095
138	578.681317
139	573.353359
140	567.323963
141	554.965858
142	542.165537
143	525.273624
144	503.839383
145	482.927994
146	464.979881
147	451.203428
148	441.491189
149	433.213336
150	426.663526
151	422.155054
152	417.632863
153	413.049694
154	410.122885
155	407.601293
156	405.053022
157	402.471759
158	399.846920
159	397.169775
160	394.997942
161	392.799094
162	390.500049
163	388.069107
164	385.463866
165	382.584540
166	379.305716
167	375.282446
168	370.308104
169	363.772155
170	355.914395
171	341.728100
172	327.099750
173	308.379958
174	285.117979
175	261.950646
176	240.074028
177	222.369196
178	208.728703
179	194.473849
180	180.213818
181	166.557741
182	148.826482
183	126.911332
184	103.687545
185	80.344754
186	61.516636
187	46.746356
188	32.374066
189	24.277606
190	17.438143
191	12.078097
192	7.568731
193	3.671790
194	0.000000
195	-3.671790
196	-7.568731
197	-12.078097
198	-17.438143
199	-24.277606
200	-32.374066
201	-46.746356
202	-61.516636
203	-80.344754
204	-103.687545
205	-126.911332
206	-148.826482
207	-166.557741
208	-180.213818
209	-194.473849
210	-208.728703
211	-222.369196
212	-240.074028
213	-261.950646
214	-285.117979
215	-308.379958
216	-327.099750
217	-341.728100
218	-355.914395
219	-363.772155
220	-370.308104
221	-375.282446
222	-379.305716
223	-382.584540
224	-385.463866
225	-388.069107
226	-390.500049
227	-392.799094
228	-394.997942
229	-397.169775
230	-399.846920
231	-402.471759
232	-405.053022
233	-407.601293
234	-410.122885
235	-413.049694
236	-417.632863
237	-422.155054
238	-426.663526
239	-433.213336
240	-441.491189
241	-451.203428
242	-464.979881
243	-482.927994
244	-503.839383
245	-525.273624
246	-542.165537
247	-554.965858
248	-567.323963
249	-573.353359
250	-578.681317
251	-582.750095
252	-585.867586
253	-588.240402
254	-590.213472
255	-591.912192
256	-593.436317
257	-594.828193
258	-596.119460
259	-597.630965
260	-599.698029
261	-601.712215
262	-603.682173
263	-605.618378
264	-607.526927
265	-609.839326
266	-613.806363
267	-617.761169
268	-621.705007
269	-627.687185
270	-635.392229
271	-644.524250
272	-657.706891
273	-675.000340
274	-695.240865
275	-715.981252
276	-732.152772
277	-744.199859
278	-755.761315
279	-760.941930
280	-765.306046
281	-768.081541
282	-769.805765
283	-770.653647
284	-770.927732
285	-770.653647
286	-769.805765
287	-768.081541
288	-765.306046
289	-760.941930
290	-755.761315
291	-744.199859
292	-732.152772
293	-715.981252
294	-695.240865
295	-675.000340
296	-657.706891
297	-644.524250
298	-635.392229
299	-627.687185
300	-621.705007
301	-617.761169
302	-613.806363
303	-609.839326
304	-607.526927
305	-605.618378
306	-603.682173
307	-601.712215
308	-599.698029
309	-597.630965
310	-596.119460
311	-594.828193
312	-593.436317
313	-591.912192
314	-590.213472
315	-588.240402
316	-585.867586
317	-582.750095
318	-578.681317
319	-573.353359
320	-567.323963
321	-554.965858
322	-542.165537
323	-525.273624
324	-503.839383
325	-482.927994
326	-464.979881
327	-451.203428
328	-441.491189
329	-433.213336
330	-426.663526
331	-422.155054
332	-417.632863
333	-413.049694
334	-410.122885
335	-407.601293
336	-405.053022
337	-402.471759
338	-399.846920
339	-397.169775
340	-394.997942
341	-392.799094
342	-390.500049
343	-388.069107
344	-385.463866
345	-382.584540
346	-379.305716
347	-375.282446
348	-370.308104
349	-363.772155
350	-355.914395
351	-341.728100
352	-327.099750
353	-308.379958
354	-285.117979
355	-261.950646
356	-240.074028
357	-222.369196
358	-208.728703
359	-194.473849
360	-180.213818
Line Voltage eab
