Induced Winding Voltages at Rated Speed
Air-Gap Position (elec. degrees)
Voltage (V)
0	-289.300283
1	-288.525783
2	-287.345002
3	-285.938229
4	-282.905491
5	-279.726230
6	-275.581244
7	-270.368138
8	-265.276013
9	-260.910951
10	-257.558955
11	-255.199979
12	-253.176109
13	-251.556396
14	-250.411377
15	-249.223705
16	-247.978648
17	-247.074034
18	-246.154395
19	-245.053252
20	-243.571642
21	-241.573677
22	-238.764456
23	-235.659841
24	-229.381781
25	-222.814475
26	-214.320042
27	-203.695895
28	-193.323422
29	-184.416653
30	-177.550006
31	-172.688142
32	-168.581257
33	-165.323091
34	-163.050097
35	-160.734612
36	-158.361921
37	-156.746504
38	-155.223019
39	-153.518401
40	-151.446392
41	-148.859802
42	-145.462546
43	-141.925413
44	-135.291707
45	-128.369323
46	-119.509280
47	-108.522726
48	-97.792644
49	-88.533993
50	-81.322398
51	-76.124888
52	-71.755516
53	-68.248638
54	-65.683038
55	-63.096257
56	-60.480948
57	-58.660993
58	-56.993813
59	-55.236233
60	-53.314117
61	-51.136847
62	-48.479143
63	-45.751954
64	-41.552582
65	-37.207861
66	-31.876384
67	-25.483226
68	-19.113984
69	-13.066659
70	-8.046296
71	-4.037587
72	0.000000
73	4.037587
74	8.046296
75	13.066659
76	19.113984
77	25.483226
78	31.876384
79	37.207861
80	41.552582
81	45.751954
82	48.479143
83	51.136847
84	53.314117
85	55.236233
86	56.993813
87	58.660993
88	60.480948
89	63.096257
90	65.683038
91	68.248638
92	71.755516
93	76.124888
94	81.322398
95	88.533993
96	97.792644
97	108.522726
98	119.509280
99	128.369323
100	135.291707
101	141.925413
102	145.462546
103	148.859802
104	151.446392
105	153.518401
106	155.223019
107	156.746504
108	158.361921
109	160.734612
110	163.050097
111	165.323091
112	168.581257
113	172.688142
114	177.550006
115	184.416653
116	193.323422
117	203.695895
118	214.320042
119	222.814475
120	229.381781
121	235.659841
122	238.764456
123	241.573677
124	243.571642
125	245.053252
126	246.154395
127	247.074034
128	247.978648
129	249.223705
130	250.411377
131	251.556396
132	253.176109
133	255.199979
134	257.558955
135	260.910951
136	265.276013
137	270.368138
138	275.581244
139	279.726230
140	282.905491
141	285.938229
142	287.345002
143	288.525783
144	289.300283
145	289.816036
146	290.141046
147	290.374866
148	290.547487
149	290.681738
150	290.787035
151	290.870752
152	290.936396
153	290.987947
154	291.027769
155	291.058021
156	291.081063
157	291.098086
158	291.109957
159	291.118169
160	291.123751
161	291.126907
162	291.127897
163	291.126907
164	291.123751
165	291.118169
166	291.109957
167	291.098086
168	291.081063
169	291.058021
170	291.027769
171	290.987947
172	290.936396
173	290.870752
174	290.787035
175	290.681738
176	290.547487
177	290.374866
178	290.141046
179	289.816036
180	289.300283
181	288.525783
182	287.345002
183	285.938229
184	282.905491
185	279.726230
186	275.581244
187	270.368138
188	265.276013
189	260.910951
190	257.558955
191	255.199979
192	253.176109
193	251.556396
194	250.411377
195	249.223705
196	247.978648
197	247.074034
198	246.154395
199	245.053252
200	243.571642
201	241.573677
202	238.764456
203	235.659841
204	229.381781
205	222.814475
206	214.320042
207	203.695895
208	193.323422
209	184.416653
210	177.550006
211	172.688142
212	168.581257
213	165.323091
214	163.050097
215	160.734612
216	158.361921
217	156.746504
218	155.223019
219	153.518401
220	151.446392
221	148.859802
222	145.462546
223	141.925413
224	135.291707
225	128.369323
226	119.509280
227	108.522726
228	97.792644
229	88.533993
230	81.322398
231	76.124888
232	71.755516
233	68.248638
234	65.683038
235	63.096257
236	60.480948
237	58.660993
238	56.993813
239	55.236233
240	53.314117
241	51.136847
242	48.479143
243	45.751954
244	41.552582
245	37.207861
246	31.876384
247	25.483226
248	19.113984
249	13.066659
250	8.046296
251	4.037587
252	0.000000
253	-4.037587
254	-8.046296
255	-13.066659
256	-19.113984
257	-25.483226
258	-31.876384
259	-37.207861
260	-41.552582
261	-45.751954
262	-48.479143
263	-51.136847
264	-53.314117
265	-55.236233
266	-56.993813
267	-58.660993
268	-60.480948
269	-63.096257
270	-65.683038
271	-68.248638
272	-71.755516
273	-76.124888
274	-81.322398
275	-88.533993
276	-97.792644
277	-108.522726
278	-119.509280
279	-128.369323
280	-135.291707
281	-141.925413
282	-145.462546
283	-148.859802
284	-151.446392
285	-153.518401
286	-155.223019
287	-156.746504
288	-158.361921
289	-160.734612
290	-163.050097
291	-165.323091
292	-168.581257
293	-172.688142
294	-177.550006
295	-184.416653
296	-193.323422
297	-203.695895
298	-214.320042
299	-222.814475
300	-229.381781
301	-235.659841
302	-238.764456
303	-241.573677
304	-243.571642
305	-245.053252
306	-246.154395
307	-247.074034
308	-247.978648
309	-249.223705
310	-250.411377
311	-251.556396
312	-253.176109
313	-255.199979
314	-257.558955
315	-260.910951
316	-265.276013
317	-270.368138
318	-275.581244
319	-279.726230
320	-282.905491
321	-285.938229
322	-287.345002
323	-288.525783
324	-289.300283
325	-289.816036
326	-290.141046
327	-290.374866
328	-290.547487
329	-290.681738
330	-290.787035
331	-290.870752
332	-290.936396
333	-290.987947
334	-291.027769
335	-291.058021
336	-291.081063
337	-291.098086
338	-291.109957
339	-291.118169
340	-291.123751
341	-291.126907
342	-291.127897
343	-291.126907
344	-291.123751
345	-291.118169
346	-291.109957
347	-291.098086
348	-291.081063
349	-291.058021
350	-291.027769
351	-290.987947
352	-290.936396
353	-290.870752
354	-290.787035
355	-290.681738
356	-290.547487
357	-290.374866
358	-290.141046
359	-289.816036
360	-289.300283
Phase Voltage ea
0	-342.614399
1	-339.662630
2	-335.824145
3	-331.690184
4	-324.458072
5	-316.934091
6	-307.457628
7	-295.851364
8	-284.389997
9	-273.977611
10	-265.605251
11	-259.237566
12	-253.176109
13	-247.518809
14	-242.365081
15	-236.157045
16	-228.864664
17	-221.590808
18	-214.278011
19	-207.845391
20	-202.019060
21	-195.821723
22	-190.285313
23	-184.522994
24	-176.067665
25	-167.578241
26	-157.326230
27	-145.034902
28	-132.842474
29	-121.320396
30	-111.866969
31	-104.439504
32	-96.825741
33	-89.198203
34	-81.727699
35	-72.200619
36	-60.569277
37	-48.223778
38	-35.713739
39	-25.149078
40	-16.154685
41	-6.934389
42	0.000000
43	6.934389
44	16.154685
45	25.149078
46	35.713739
47	48.223778
48	60.569277
49	72.200619
50	81.727699
51	89.198203
52	96.825741
53	104.439504
54	111.866969
55	121.320396
56	132.842474
57	145.034902
58	157.326230
59	167.578241
60	176.067665
61	184.522994
62	190.285313
63	195.821723
64	202.019060
65	207.845391
66	214.278011
67	221.590808
68	228.864664
69	236.157045
70	242.365081
71	247.518809
72	253.176109
73	259.237566
74	265.605251
75	273.977611
76	284.389997
77	295.851364
78	307.457628
79	316.934091
80	324.458072
81	331.690184
82	335.824145
83	339.662630
84	342.614399
85	345.052269
86	347.134859
87	349.035859
88	351.028435
89	353.777995
90	356.470073
91	359.119390
92	362.691911
93	367.112835
94	372.350167
95	379.592014
96	388.873707
97	399.620812
98	410.619237
99	419.487491
100	426.415458
101	433.052321
102	436.590443
103	439.986709
104	442.570143
105	444.636569
106	446.332976
107	447.844590
108	449.442984
109	451.792632
110	454.077866
111	456.311038
112	459.517652
113	463.558894
114	468.337041
115	475.098390
116	483.870909
117	494.070760
118	504.461088
119	512.630511
120	518.682064
121	524.185624
122	526.109457
123	527.511906
124	526.477133
125	524.779482
126	521.735639
127	517.442172
128	513.254661
129	510.134656
130	507.970332
131	506.756375
132	506.352217
133	506.756375
134	507.970332
135	510.134656
136	513.254661
137	517.442172
138	521.735639
139	524.779482
140	526.477133
141	527.511906
142	526.109457
143	524.185624
144	518.682064
145	512.630511
146	504.461088
147	494.070760
148	483.870909
149	475.098390
150	468.337041
151	463.558894
152	459.517652
153	456.311038
154	454.077866
155	451.792632
156	449.442984
157	447.844590
158	446.332976
159	444.636569
160	442.570143
161	439.986709
162	436.590443
163	433.052321
164	426.415458
165	419.487491
166	410.619237
167	399.620812
168	388.873707
169	379.592014
170	372.350167
171	367.112835
172	362.691911
173	359.119390
174	356.470073
175	353.777995
176	351.028435
177	349.035859
178	347.134859
179	345.052269
180	342.614399
181	339.662630
182	335.824145
183	331.690184
184	324.458072
185	316.934091
186	307.457628
187	295.851364
188	284.389997
189	273.977611
190	265.605251
191	259.237566
192	253.176109
193	247.518809
194	242.365081
195	236.157045
196	228.864664
197	221.590808
198	214.278011
199	207.845391
200	202.019060
201	195.821723
202	190.285313
203	184.522994
204	176.067665
205	167.578241
206	157.326230
207	145.034902
208	132.842474
209	121.320396
210	111.866969
211	104.439504
212	96.825741
213	89.198203
214	81.727699
215	72.200619
216	60.569277
217	48.223778
218	35.713739
219	25.149078
220	16.154685
221	6.934389
222	0.000000
223	-6.934389
224	-16.154685
225	-25.149078
226	-35.713739
227	-48.223778
228	-60.569277
229	-72.200619
230	-81.727699
231	-89.198203
232	-96.825741
233	-104.439504
234	-111.866969
235	-121.320396
236	-132.842474
237	-145.034902
238	-157.326230
239	-167.578241
240	-176.067665
241	-184.522994
242	-190.285313
243	-195.821723
244	-202.019060
245	-207.845391
246	-214.278011
247	-221.590808
248	-228.864664
249	-236.157045
250	-242.365081
251	-247.518809
252	-253.176109
253	-259.237566
254	-265.605251
255	-273.977611
256	-284.389997
257	-295.851364
258	-307.457628
259	-316.934091
260	-324.458072
261	-331.690184
262	-335.824145
263	-339.662630
264	-342.614399
265	-345.052269
266	-347.134859
267	-349.035859
268	-351.028435
269	-353.777995
270	-356.470073
271	-359.119390
272	-362.691911
273	-367.112835
274	-372.350167
275	-379.592014
276	-388.873707
277	-399.620812
278	-410.619237
279	-419.487491
280	-426.415458
281	-433.052321
282	-436.590443
283	-439.986709
284	-442.570143
285	-444.636569
286	-446.332976
287	-447.844590
288	-449.442984
289	-451.792632
290	-454.077866
291	-456.311038
292	-459.517652
293	-463.558894
294	-468.337041
295	-475.098390
296	-483.870909
297	-494.070760
298	-504.461088
299	-512.630511
300	-518.682064
301	-524.185624
302	-526.109457
303	-527.511906
304	-526.477133
305	-524.779482
306	-521.735639
307	-517.442172
308	-513.254661
309	-510.134656
310	-507.970332
311	-506.756375
312	-506.352217
313	-506.756375
314	-507.970332
315	-510.134656
316	-513.254661
317	-517.442172
318	-521.735639
319	-524.779482
320	-526.477133
321	-527.511906
322	-526.109457
323	-524.185624
324	-518.682064
325	-512.630511
326	-504.461088
327	-494.070760
328	-483.870909
329	-475.098390
330	-468.337041
331	-463.558894
332	-459.517652
333	-456.311038
334	-454.077866
335	-451.792632
336	-449.442984
337	-447.844590
338	-446.332976
339	-444.636569
340	-442.570143
341	-439.986709
342	-436.590443
343	-433.052321
344	-426.415458
345	-419.487491
346	-410.619237
347	-399.620812
348	-388.873707
349	-379.592014
350	-372.350167
351	-367.112835
352	-362.691911
353	-359.119390
354	-356.470073
355	-353.777995
356	-351.028435
357	-349.035859
358	-347.134859
359	-345.052269
360	-342.614399
Line Voltage eab
