Induced Winding Voltages at Rated Speed
Air-Gap Position (elec. degrees)
Voltage (V)
0	-355.589316
1	-354.033033
2	-352.351610
3	-350.535173
4	-348.580939
5	-346.499631
6	-344.314634
7	-342.040279
8	-339.698331
9	-337.294239
10	-334.824084
11	-332.302440
12	-329.721202
13	-327.075201
14	-324.335885
15	-321.500132
16	-318.568740
17	-315.512081
18	-312.319254
19	-308.986708
20	-305.524585
21	-301.955939
22	-298.294947
23	-294.563101
24	-290.765641
25	-286.898488
26	-282.975939
27	-278.989779
28	-274.934869
29	-270.782769
30	-266.530569
31	-262.179330
32	-257.699690
33	-253.079572
34	-248.315995
35	-243.419823
36	-238.415059
37	-233.317140
38	-228.149372
39	-222.919852
40	-217.629008
41	-212.294178
42	-206.914758
43	-201.491553
44	-196.025634
45	-190.529118
46	-185.007585
47	-179.462223
48	-173.889317
49	-168.297120
50	-162.690935
51	-157.100633
52	-151.523057
53	-145.960435
54	-140.434679
55	-134.933698
56	-129.445881
57	-123.937297
58	-118.375422
59	-112.753562
60	-107.062460
61	-101.326366
62	-95.548426
63	-89.717210
64	-83.869444
65	-78.015592
66	-72.192546
67	-66.390857
68	-60.613945
69	-54.886269
70	-49.197295
71	-43.536451
72	-37.870586
73	-32.166668
74	-26.414350
75	-20.603131
76	-14.757507
77	-8.880885
78	-2.962062
79	2.962062
80	8.880885
81	14.757507
82	20.603131
83	26.414350
84	32.166668
85	37.870586
86	43.536451
87	49.197295
88	54.886269
89	60.613945
90	66.390857
91	72.192546
92	78.015592
93	83.869444
94	89.717210
95	95.548426
96	101.326366
97	107.062460
98	112.753562
99	118.375422
100	123.937297
101	129.445881
102	134.933698
103	140.434679
104	145.960435
105	151.523057
106	157.100633
107	162.690935
108	168.297120
109	173.889317
110	179.462223
111	185.007585
112	190.529118
113	196.025634
114	201.491553
115	206.914758
116	212.294178
117	217.629008
118	222.919852
119	228.149372
120	233.317140
121	238.415059
122	243.419823
123	248.315995
124	253.079572
125	257.699690
126	262.179330
127	266.530569
128	270.782769
129	274.934869
130	278.989779
131	282.975939
132	286.898488
133	290.765641
134	294.563101
135	298.294947
136	301.955939
137	305.524585
138	308.986708
139	312.319254
140	315.512081
141	318.568740
142	321.500132
143	324.335885
144	327.075201
145	329.721202
146	332.302440
147	334.824084
148	337.294239
149	339.698331
150	342.040279
151	344.314634
152	346.499631
153	348.580939
154	350.535173
155	352.351610
156	354.033033
157	355.589316
158	357.048538
159	358.407431
160	359.666653
161	360.848061
162	361.948709
163	362.971542
164	363.873514
165	364.645080
166	365.278817
167	365.723606
168	365.958697
169	365.958697
170	365.723606
171	365.278817
172	364.645080
173	363.873514
174	362.971542
175	361.948709
176	360.848061
177	359.666653
178	358.407431
179	357.048538
180	355.589316
181	354.033033
182	352.351610
183	350.535173
184	348.580939
185	346.499631
186	344.314634
187	342.040279
188	339.698331
189	337.294239
190	334.824084
191	332.302440
192	329.721202
193	327.075201
194	324.335885
195	321.500132
196	318.568740
197	315.512081
198	312.319254
199	308.986708
200	305.524585
201	301.955939
202	298.294947
203	294.563101
204	290.765641
205	286.898488
206	282.975939
207	278.989779
208	274.934869
209	270.782769
210	266.530569
211	262.179330
212	257.699690
213	253.079572
214	248.315995
215	243.419823
216	238.415059
217	233.317140
218	228.149372
219	222.919852
220	217.629008
221	212.294178
222	206.914758
223	201.491553
224	196.025634
225	190.529118
226	185.007585
227	179.462223
228	173.889317
229	168.297120
230	162.690935
231	157.100633
232	151.523057
233	145.960435
234	140.434679
235	134.933698
236	129.445881
237	123.937297
238	118.375422
239	112.753562
240	107.062460
241	101.326366
242	95.548426
243	89.717210
244	83.869444
245	78.015592
246	72.192546
247	66.390857
248	60.613945
249	54.886269
250	49.197295
251	43.536451
252	37.870586
253	32.166668
254	26.414350
255	20.603131
256	14.757507
257	8.880885
258	2.962062
259	-2.962062
260	-8.880885
261	-14.757507
262	-20.603131
263	-26.414350
264	-32.166668
265	-37.870586
266	-43.536451
267	-49.197295
268	-54.886269
269	-60.613945
270	-66.390857
271	-72.192546
272	-78.015592
273	-83.869444
274	-89.717210
275	-95.548426
276	-101.326366
277	-107.062460
278	-112.753562
279	-118.375422
280	-123.937297
281	-129.445881
282	-134.933698
283	-140.434679
284	-145.960435
285	-151.523057
286	-157.100633
287	-162.690935
288	-168.297120
289	-173.889317
290	-179.462223
291	-185.007585
292	-190.529118
293	-196.025634
294	-201.491553
295	-206.914758
296	-212.294178
297	-217.629008
298	-222.919852
299	-228.149372
300	-233.317140
301	-238.415059
302	-243.419823
303	-248.315995
304	-253.079572
305	-257.699690
306	-262.179330
307	-266.530569
308	-270.782769
309	-274.934869
310	-278.989779
311	-282.975939
312	-286.898488
313	-290.765641
314	-294.563101
315	-298.294947
316	-301.955939
317	-305.524585
318	-308.986708
319	-312.319254
320	-315.512081
321	-318.568740
322	-321.500132
323	-324.335885
324	-327.075201
325	-329.721202
326	-332.302440
327	-334.824084
328	-337.294239
329	-339.698331
330	-342.040279
331	-344.314634
332	-346.499631
333	-348.580939
334	-350.535173
335	-352.351610
336	-354.033033
337	-355.589316
338	-357.048538
339	-358.407431
340	-359.666653
341	-360.848061
342	-361.948709
343	-362.971542
344	-363.873514
345	-364.645080
346	-365.278817
347	-365.723606
348	-365.958697
349	-365.958697
350	-365.723606
351	-365.278817
352	-364.645080
353	-363.873514
354	-362.971542
355	-361.948709
356	-360.848061
357	-359.666653
358	-358.407431
359	-357.048538
360	-355.589316
Phase Voltage ea
0	-462.651776
1	-455.359399
2	-447.900036
3	-440.252383
4	-432.450383
5	-424.515224
6	-416.507180
7	-408.431136
8	-400.312277
9	-392.180508
10	-384.021379
11	-375.838890
12	-367.591788
13	-359.241869
14	-350.750235
15	-342.103263
16	-333.326248
17	-324.392966
18	-315.281316
19	-306.024646
20	-296.643699
21	-287.198432
22	-277.691816
23	-268.148750
24	-258.598973
25	-249.027903
26	-239.439489
27	-229.792484
28	-220.048600
29	-210.168824
30	-200.139712
31	-189.986784
32	-179.684097
33	-169.210128
34	-158.598785
35	-147.871396
36	-137.088693
37	-126.254680
38	-115.395810
39	-104.544431
40	-93.691711
41	-82.848296
42	-71.981060
43	-61.056874
44	-50.065199
45	-39.006061
46	-27.906952
47	-16.771288
48	-5.592197
49	5.592197
50	16.771288
51	27.906952
52	39.006061
53	50.065199
54	61.056874
55	71.981060
56	82.848296
57	93.691711
58	104.544431
59	115.395810
60	126.254680
61	137.088693
62	147.871396
63	158.598785
64	169.210128
65	179.684097
66	189.986784
67	200.139712
68	210.168824
69	220.048600
70	229.792484
71	239.439489
72	249.027903
73	258.598973
74	268.148750
75	277.691816
76	287.198432
77	296.643699
78	306.024646
79	315.281316
80	324.392966
81	333.326248
82	342.103263
83	350.750235
84	359.241869
85	367.591788
86	375.838890
87	384.021379
88	392.180508
89	400.312277
90	408.431136
91	416.507180
92	424.515224
93	432.450383
94	440.252383
95	447.900036
96	455.359399
97	462.651776
98	469.802100
99	476.782853
100	483.603950
101	490.293943
102	496.882407
103	503.406221
104	509.833949
105	516.168137
106	522.379450
107	528.414540
108	534.255817
109	539.848014
110	545.185828
111	550.286401
112	555.174198
113	559.899148
114	564.463094
115	568.863467
116	573.142239
117	577.295661
118	581.327284
119	585.197909
120	588.906456
121	592.448092
122	595.771432
123	598.851168
124	601.660511
125	604.199321
126	606.493964
127	608.570848
128	610.481100
129	612.229108
130	613.813863
131	615.278379
132	616.619690
133	617.840842
134	618.898986
135	619.795079
136	620.524679
137	621.036666
138	621.305962
139	621.305962
140	621.036666
141	620.524679
142	619.795079
143	618.898986
144	617.840842
145	616.619690
146	615.278379
147	613.813863
148	612.229108
149	610.481100
150	608.570848
151	606.493964
152	604.199321
153	601.660511
154	598.851168
155	595.771432
156	592.448092
157	588.906456
158	585.197909
159	581.327284
160	577.295661
161	573.142239
162	568.863467
163	564.463094
164	559.899148
165	555.174198
166	550.286401
167	545.185828
168	539.848014
169	534.255817
170	528.414540
171	522.379450
172	516.168137
173	509.833949
174	503.406221
175	496.882407
176	490.293943
177	483.603950
178	476.782853
179	469.802100
180	462.651776
181	455.359399
182	447.900036
183	440.252383
184	432.450383
185	424.515224
186	416.507180
187	408.431136
188	400.312277
189	392.180508
190	384.021379
191	375.838890
192	367.591788
193	359.241869
194	350.750235
195	342.103263
196	333.326248
197	324.392966
198	315.281316
199	306.024646
200	296.643699
201	287.198432
202	277.691816
203	268.148750
204	258.598973
205	249.027903
206	239.439489
207	229.792484
208	220.048600
209	210.168824
210	200.139712
211	189.986784
212	179.684097
213	169.210128
214	158.598785
215	147.871396
216	137.088693
217	126.254680
218	115.395810
219	104.544431
220	93.691711
221	82.848296
222	71.981060
223	61.056874
224	50.065199
225	39.006061
226	27.906952
227	16.771288
228	5.592197
229	-5.592197
230	-16.771288
231	-27.906952
232	-39.006061
233	-50.065199
234	-61.056874
235	-71.981060
236	-82.848296
237	-93.691711
238	-104.544431
239	-115.395810
240	-126.254680
241	-137.088693
242	-147.871396
243	-158.598785
244	-169.210128
245	-179.684097
246	-189.986784
247	-200.139712
248	-210.168824
249	-220.048600
250	-229.792484
251	-239.439489
252	-249.027903
253	-258.598973
254	-268.148750
255	-277.691816
256	-287.198432
257	-296.643699
258	-306.024646
259	-315.281316
260	-324.392966
261	-333.326248
262	-342.103263
263	-350.750235
264	-359.241869
265	-367.591788
266	-375.838890
267	-384.021379
268	-392.180508
269	-400.312277
270	-408.431136
271	-416.507180
272	-424.515224
273	-432.450383
274	-440.252383
275	-447.900036
276	-455.359399
277	-462.651776
278	-469.802100
279	-476.782853
280	-483.603950
281	-490.293943
282	-496.882407
283	-503.406221
284	-509.833949
285	-516.168137
286	-522.379450
287	-528.414540
288	-534.255817
289	-539.848014
290	-545.185828
291	-550.286401
292	-555.174198
293	-559.899148
294	-564.463094
295	-568.863467
296	-573.142239
297	-577.295661
298	-581.327284
299	-585.197909
300	-588.906456
301	-592.448092
302	-595.771432
303	-598.851168
304	-601.660511
305	-604.199321
306	-606.493964
307	-608.570848
308	-610.481100
309	-612.229108
310	-613.813863
311	-615.278379
312	-616.619690
313	-617.840842
314	-618.898986
315	-619.795079
316	-620.524679
317	-621.036666
318	-621.305962
319	-621.305962
320	-621.036666
321	-620.524679
322	-619.795079
323	-618.898986
324	-617.840842
325	-616.619690
326	-615.278379
327	-613.813863
328	-612.229108
329	-610.481100
330	-608.570848
331	-606.493964
332	-604.199321
333	-601.660511
334	-598.851168
335	-595.771432
336	-592.448092
337	-588.906456
338	-585.197909
339	-581.327284
340	-577.295661
341	-573.142239
342	-568.863467
343	-564.463094
344	-559.899148
345	-555.174198
346	-550.286401
347	-545.185828
348	-539.848014
349	-534.255817
350	-528.414540
351	-522.379450
352	-516.168137
353	-509.833949
354	-503.406221
355	-496.882407
356	-490.293943
357	-483.603950
358	-476.782853
359	-469.802100
360	-462.651776
Line Voltage eab
