Winding Voltages under Load 
Air-Gap Position (elec. degrees)
Voltage (V)
0	-0.847429
1	31.7638
2	64.3218
3	96.1897
4	127.483
5	159.048
6	190.881
7	223.465
8	256.332
9	290.156
10	323.886
11	358.553
12	393.462
13	429.061
14	464.844
15	500.797
16	536.052
17	570.473
18	604.677
19	637.892
20	670.603
21	703.033
22	735.088
23	766.795
24	798.184
25	829.284
26	860.101
27	890.636
28	920.883
29	950.844
30	980.545
31	1009.94
32	1039.02
33	1067.78
34	1096.21
35	1124.3
36	1152.05
37	1179.45
38	1206.49
39	1233.16
40	1259.46
41	1285.38
42	1310.9
43	1336.02
44	1360.74
45	1385.04
46	1408.93
47	1432.39
48	1455.42
49	1478.02
50	1500.13
51	1521.8
52	1543.02
53	1563.78
54	1584.11
55	1603.99
56	1623.47
57	1642.58
58	1661.36
59	1679.7
60	1697.84
61	1716.27
62	1734.22
63	1752.31
64	1770.41
65	1787.66
66	1804.05
67	1819.09
68	1833.21
69	1845.75
70	1857.72
71	1868.1
72	1877.56
73	1885.63
74	1892.81
75	1899.11
76	1905.38
77	1911.73
78	1917.54
79	1923.58
80	1929.34
81	1934.59
82	1939.41
83	1943.76
84	1947.61
85	1950.9
86	1953.64
87	1955.8
88	1957.38
89	1958.37
90	1958.73
91	1958.51
92	1957.69
93	1956.28
94	1954.29
95	1951.69
96	1948.51
97	1944.73
98	1940.36
99	1935.39
100	1929.84
101	1923.7
102	1916.97
103	1909.66
104	1901.77
105	1893.3
106	1884.24
107	1874.61
108	1864.4
109	1853.61
110	1842.29
111	1830.4
112	1817.94
113	1804.9
114	1791.28
115	1777.08
116	1762.24
117	1746.75
118	1730.56
119	1713.77
120	1696.14
121	1677.2
122	1657.7
123	1637.03
124	1615.31
125	1593.41
126	1571.34
127	1549.6
128	1527.74
129	1506.45
130	1484.7
131	1463.53
132	1442.26
133	1421.37
134	1400.35
135	1379.22
136	1357.13
137	1333.95
138	1310.33
139	1285.49
140	1259.96
141	1233.97
142	1207.44
143	1180.42
144	1152.95
145	1125.09
146	1096.85
147	1068.26
148	1039.33
149	1010.08
150	980.545
151	950.706
152	920.571
153	890.15
154	859.455
155	828.494
156	797.278
157	765.824
158	734.138
159	702.228
160	670.104
161	637.777
162	605.253
163	572.541
164	539.658
165	506.612
166	473.417
167	440.083
168	406.621
169	373.042
170	339.321
171	305.503
172	271.607
173	237.649
174	203.649
175	169.632
176	135.649
177	101.748
178	67.9773
179	34.2626
180	0.847428
181	-31.7638
182	-64.3218
183	-96.1897
184	-127.483
185	-159.048
186	-190.881
187	-223.465
188	-256.332
189	-290.156
190	-323.886
191	-358.553
192	-393.462
193	-429.061
194	-464.844
195	-500.797
196	-536.052
197	-570.473
198	-604.677
199	-637.892
200	-670.603
201	-703.033
202	-735.088
203	-766.795
204	-798.184
205	-829.284
206	-860.101
207	-890.636
208	-920.883
209	-950.844
210	-980.545
211	-1009.94
212	-1039.02
213	-1067.78
214	-1096.21
215	-1124.3
216	-1152.05
217	-1179.45
218	-1206.49
219	-1233.16
220	-1259.46
221	-1285.38
222	-1310.9
223	-1336.02
224	-1360.74
225	-1385.04
226	-1408.93
227	-1432.39
228	-1455.42
229	-1478.02
230	-1500.13
231	-1521.8
232	-1543.02
233	-1563.78
234	-1584.11
235	-1603.99
236	-1623.47
237	-1642.58
238	-1661.36
239	-1679.7
240	-1697.84
241	-1716.27
242	-1734.22
243	-1752.31
244	-1770.41
245	-1787.66
246	-1804.05
247	-1819.09
248	-1833.21
249	-1845.75
250	-1857.72
251	-1868.1
252	-1877.56
253	-1885.63
254	-1892.81
255	-1899.11
256	-1905.38
257	-1911.73
258	-1917.54
259	-1923.58
260	-1929.34
261	-1934.59
262	-1939.41
263	-1943.76
264	-1947.61
265	-1950.9
266	-1953.64
267	-1955.8
268	-1957.38
269	-1958.37
270	-1958.73
271	-1958.51
272	-1957.69
273	-1956.28
274	-1954.29
275	-1951.69
276	-1948.51
277	-1944.73
278	-1940.36
279	-1935.39
280	-1929.84
281	-1923.7
282	-1916.97
283	-1909.66
284	-1901.77
285	-1893.3
286	-1884.24
287	-1874.61
288	-1864.4
289	-1853.61
290	-1842.29
291	-1830.4
292	-1817.94
293	-1804.9
294	-1791.28
295	-1777.08
296	-1762.24
297	-1746.75
298	-1730.56
299	-1713.77
300	-1696.14
301	-1677.2
302	-1657.7
303	-1637.03
304	-1615.31
305	-1593.41
306	-1571.34
307	-1549.6
308	-1527.74
309	-1506.45
310	-1484.7
311	-1463.53
312	-1442.26
313	-1421.37
314	-1400.35
315	-1379.22
316	-1357.13
317	-1333.95
318	-1310.33
319	-1285.49
320	-1259.96
321	-1233.97
322	-1207.44
323	-1180.42
324	-1152.95
325	-1125.09
326	-1096.85
327	-1068.26
328	-1039.33
329	-1010.08
330	-980.545
331	-950.706
332	-920.571
333	-890.15
334	-859.455
335	-828.494
336	-797.278
337	-765.824
338	-734.138
339	-702.228
340	-670.104
341	-637.777
342	-605.253
343	-572.541
344	-539.658
345	-506.612
346	-473.417
347	-440.083
348	-406.621
349	-373.042
350	-339.321
351	-305.503
352	-271.607
353	-237.649
354	-203.649
355	-169.632
356	-135.649
357	-101.748
358	-67.9773
359	-34.2626
360	-0.847429
Phase Voltage va
0	1696.99
1	1748.03
2	1798.54
3	1848.5
4	1897.89
5	1946.71
6	1994.93
7	2042.55
8	2089.54
9	2135.9
10	2181.61
11	2226.65
12	2271.02
13	2314.69
14	2357.66
15	2399.91
16	2441.43
17	2482.2
18	2522.22
19	2561.47
20	2599.94
21	2637.62
22	2674.5
23	2710.56
24	2745.79
25	2780.19
26	2813.74
27	2846.43
28	2878.26
29	2909.21
30	2939.28
31	2968.44
32	2996.71
33	3024.06
34	3050.49
35	3075.99
36	3100.56
37	3124.18
38	3146.85
39	3168.56
40	3189.3
41	3209.07
42	3227.87
43	3245.68
44	3262.51
45	3278.34
46	3293.17
47	3307
48	3319.82
49	3331.63
50	3342.42
51	3352.2
52	3360.95
53	3368.69
54	3375.39
55	3381.07
56	3385.72
57	3389.33
58	3391.92
59	3393.47
60	3393.98
61	3393.47
62	3391.92
63	3389.33
64	3385.72
65	3381.07
66	3375.39
67	3368.69
68	3360.95
69	3352.2
70	3342.42
71	3331.63
72	3319.82
73	3307
74	3293.17
75	3278.34
76	3262.51
77	3245.68
78	3227.87
79	3209.07
80	3189.3
81	3168.56
82	3146.85
83	3124.18
84	3100.56
85	3075.99
86	3050.49
87	3024.06
88	2996.71
89	2968.44
90	2939.28
91	2909.21
92	2878.26
93	2846.43
94	2813.74
95	2780.19
96	2745.79
97	2710.56
98	2674.5
99	2637.62
100	2599.94
101	2561.47
102	2522.22
103	2482.2
104	2441.43
105	2399.91
106	2357.66
107	2314.69
108	2271.02
109	2226.65
110	2181.61
111	2135.9
112	2089.54
113	2042.55
114	1994.93
115	1946.71
116	1897.89
117	1848.5
118	1798.54
119	1748.03
120	1696.99
121	1645.44
122	1593.38
123	1540.84
124	1487.82
125	1434.36
126	1380.46
127	1326.14
128	1271.41
129	1216.29
130	1160.81
131	1104.97
132	1048.8
133	992.305
134	935.509
135	878.428
136	821.079
137	763.48
138	705.649
139	647.603
140	589.359
141	530.936
142	472.351
143	413.623
144	354.768
145	295.805
146	236.752
147	177.627
148	118.448
149	59.2332
150	-7.95808e-12
151	-59.2332
152	-118.448
153	-177.627
154	-236.752
155	-295.805
156	-354.768
157	-413.623
158	-472.351
159	-530.936
160	-589.359
161	-647.603
162	-705.649
163	-763.48
164	-821.079
165	-878.428
166	-935.509
167	-992.305
168	-1048.8
169	-1104.97
170	-1160.81
171	-1216.29
172	-1271.41
173	-1326.14
174	-1380.46
175	-1434.36
176	-1487.82
177	-1540.84
178	-1593.38
179	-1645.44
180	-1696.99
181	-1748.03
182	-1798.54
183	-1848.5
184	-1897.89
185	-1946.71
186	-1994.93
187	-2042.55
188	-2089.54
189	-2135.9
190	-2181.61
191	-2226.65
192	-2271.02
193	-2314.69
194	-2357.66
195	-2399.91
196	-2441.43
197	-2482.2
198	-2522.22
199	-2561.47
200	-2599.94
201	-2637.62
202	-2674.5
203	-2710.56
204	-2745.79
205	-2780.19
206	-2813.74
207	-2846.43
208	-2878.26
209	-2909.21
210	-2939.28
211	-2968.44
212	-2996.71
213	-3024.06
214	-3050.49
215	-3075.99
216	-3100.56
217	-3124.18
218	-3146.85
219	-3168.56
220	-3189.3
221	-3209.07
222	-3227.87
223	-3245.68
224	-3262.51
225	-3278.34
226	-3293.17
227	-3307
228	-3319.82
229	-3331.63
230	-3342.42
231	-3352.2
232	-3360.95
233	-3368.69
234	-3375.39
235	-3381.07
236	-3385.72
237	-3389.33
238	-3391.92
239	-3393.47
240	-3393.98
241	-3393.47
242	-3391.92
243	-3389.33
244	-3385.72
245	-3381.07
246	-3375.39
247	-3368.69
248	-3360.95
249	-3352.2
250	-3342.42
251	-3331.63
252	-3319.82
253	-3307
254	-3293.17
255	-3278.34
256	-3262.51
257	-3245.68
258	-3227.87
259	-3209.07
260	-3189.3
261	-3168.56
262	-3146.85
263	-3124.18
264	-3100.56
265	-3075.99
266	-3050.49
267	-3024.06
268	-2996.71
269	-2968.44
270	-2939.28
271	-2909.21
272	-2878.26
273	-2846.43
274	-2813.74
275	-2780.19
276	-2745.79
277	-2710.56
278	-2674.5
279	-2637.62
280	-2599.94
281	-2561.47
282	-2522.22
283	-2482.2
284	-2441.43
285	-2399.91
286	-2357.66
287	-2314.69
288	-2271.02
289	-2226.65
290	-2181.61
291	-2135.9
292	-2089.54
293	-2042.55
294	-1994.93
295	-1946.71
296	-1897.89
297	-1848.5
298	-1798.54
299	-1748.03
300	-1696.99
301	-1645.44
302	-1593.38
303	-1540.84
304	-1487.82
305	-1434.36
306	-1380.46
307	-1326.14
308	-1271.41
309	-1216.29
310	-1160.81
311	-1104.97
312	-1048.8
313	-992.305
314	-935.509
315	-878.428
316	-821.079
317	-763.48
318	-705.649
319	-647.603
320	-589.359
321	-530.936
322	-472.351
323	-413.623
324	-354.768
325	-295.805
326	-236.752
327	-177.627
328	-118.448
329	-59.2332
330	1.1255e-11
331	59.2332
332	118.448
333	177.627
334	236.752
335	295.805
336	354.768
337	413.623
338	472.351
339	530.936
340	589.359
341	647.603
342	705.649
343	763.48
344	821.079
345	878.428
346	935.509
347	992.305
348	1048.8
349	1104.97
350	1160.81
351	1216.29
352	1271.41
353	1326.14
354	1380.46
355	1434.36
356	1487.82
357	1540.84
358	1593.38
359	1645.44
360	1696.99
Line Voltage vab
